#"+EI TIC Scan ACE-EndBlank.d "
#Point,X(Minutes),Y(Counts)
0,2.095,0.0758490239131171
1,2.102,0.0680865485561225
2,2.110,0.0656766297361405
3,2.117,0.0673847125488997
4,2.125,0.0638713045850312
5,2.132,0.0713124574326949
6,2.140,0.0712109871665904
7,2.147,0.0664587963706961
8,2.155,0.0558720652737928
9,2.162,0.0585652552533165
10,2.170,0.0578634192460937
11,2.178,0.0630637703839495
12,2.185,0.0585102921925099
13,2.193,0.0434757810980258
14,2.200,0.0500840321780817
15,2.208,0.0532888014158823
16,2.215,0.0515046159035447
17,2.223,0.0381105407777501
18,2.230,0.0441607053942312
19,2.238,0.0294010096037802
20,2.245,0.135094975534885
21,2.253,0.288133276459249
22,2.260,0.12759463169866
23,2.268,0.0465452566476871
24,2.275,0.0429430622009772
25,2.283,0.0371592570330204
26,2.291,0.0364447372425345
27,2.298,0.0370789264056877
28,2.306,0.0374721236868426
29,2.313,0.0430064811172925
30,2.321,0.0441184261166877
31,2.328,0.0416028091028468
32,2.336,0.0309822545839087
33,2.343,0.0336373932136432
34,2.351,0.0406515253581171
35,2.358,0.0416239487416186
36,2.366,0.0321745302106366
37,2.373,0.0320265527392342
38,2.381,0.0534748302370739
39,2.388,0.239524791067437
40,2.396,0.326746940639767
41,2.404,0.106552235265238
42,2.411,0.053225382499567
43,2.419,0.0478347746127652
44,2.426,0.035544188630857
45,2.434,0.0468538953737549
46,2.441,0.0416493163081447
47,2.449,0.0439366252232504
48,2.456,0.0376496966525255
49,2.464,0.047475400753645
50,2.471,0.0423934315929111
51,2.479,0.0493695123875958
52,2.486,0.0274054277037249
53,2.494,0.043585707219639
54,2.502,0.0349311391064757
55,2.509,0.0393831470318108
56,2.517,0.0470441521227009
57,2.524,0.055242104038394
58,2.532,0.0479869800119219
59,2.539,0.0430699000336078
60,2.547,0.0446638287969994
61,2.554,0.0365631192196564
62,2.562,0.0382289227548721
63,2.569,0.0364235976037628
64,2.577,0.0504307222539387
65,2.584,0.0375820498084558
66,2.592,0.0388631119180252
67,2.599,0.0431755982274667
68,2.607,0.0376708362912973
69,2.615,0.0448963648234889
70,2.622,0.0337853706850456
71,2.630,0.0328340869403159
72,2.637,0.0382077831161003
73,2.645,0.0388969353400601
74,2.652,0.0450781657169261
75,2.660,0.0357851805128552
76,2.667,0.0378568651124889
77,2.675,0.0376750642190516
78,2.682,0.0405500550920126
79,2.690,0.037882232679015
80,2.697,0.0490185943839844
81,2.705,0.032787579735018
82,2.713,0.0314092752870985
83,2.720,0.0561003733725279
84,2.728,0.0641376640335555
85,2.735,0.06168546593603
86,2.743,0.0463423161154781
87,2.750,0.0448033504128931
88,2.758,0.0404824082479429
89,2.765,0.06361762891977
90,2.773,0.0459491188343231
91,2.780,0.0373833372040012
92,2.788,0.0320899716555495
93,2.795,0.0501178556001165
94,2.803,0.0661247900781021
95,2.810,0.0411884721829201
96,2.818,0.0355399607031027
97,2.826,0.0463380881877237
98,2.833,0.0509718970064961
99,2.841,0.0428542757181357
100,2.848,0.04338276668743
101,2.856,0.0378737768235063
102,2.863,0.0423934315929111
103,2.871,0.0374678957590883
104,2.878,0.0483548097265507
105,2.886,0.0568994517181009
106,2.893,0.0444312927705099
107,2.901,0.0379583353785934
108,2.908,0.0458603323514817
109,2.916,0.0461647431497952
110,2.924,0.0413449055098312
111,2.931,0.0419283595399321
112,2.939,0.0494625267981916
113,2.946,0.0650847198505309
114,2.954,1.51948763942067
115,2.961,18.3218517613272
116,2.969,56.6533440435199
117,2.976,100
118,2.984,29.0484934434776
119,2.991,0.219268789196325
120,2.999,0.119612304098439
121,3.006,0.0968364572857321
122,3.014,0.083674918186427
123,3.021,0.0644463027596234
124,3.029,0.0739295447126402
125,3.037,0.0910357404067579
126,3.044,0.075358584293612
127,3.052,0.0670633900395688
128,3.059,0.0770201599010732
129,3.067,0.0594404362984679
130,3.074,0.0521007537169087
131,3.082,0.0692492286885699
132,3.089,0.0673804846211453
133,3.097,0.053906078868018
134,3.104,0.0626917127415663
135,3.112,0.0525108627090811
136,3.119,0.0836199551256204
137,3.127,0.0788170291966739
138,3.134,0.0456235683972378
139,3.142,0.0363390390486757
140,3.150,0.0502531492882558
141,3.157,0.0722426015386528
142,3.165,0.0535044257313543
143,3.172,0.0476825692136084
144,3.180,0.0496654673304006
145,3.187,0.05183016634063
146,3.195,0.0440592351281267
147,3.202,0.0384868263478877
148,3.210,0.038144364199785
149,3.217,0.0444651161925447
150,3.225,0.0404189893316276
151,3.232,0.0374002489150186
152,3.240,0.0440000441395657
153,3.248,0.108721162203222
154,3.255,0.619492886279017
155,3.263,1.15816047767804
156,3.270,0.494037586024061
157,3.278,0.0752528860997531
158,3.285,0.0538933950847549
159,3.293,0.0366561336302522
160,3.300,0.0517160122912625
161,3.308,0.0640446496229597
162,3.315,0.0535382491533892
163,3.323,0.0355737841251375
164,3.330,0.0348550364068973
165,3.338,0.0240399972112589
166,3.345,0.0280649844334042
167,3.353,0.0295109357253934
168,3.361,0.0251984494159519
169,3.368,0.0309399753063652
170,3.376,0.0315741644695183
171,3.383,0.0286484384635051
172,3.391,0.0242767611655027
173,3.398,0.0216343063190312
174,3.406,0.0233762125538252
175,3.413,0.022048643238958
176,3.421,0.0241203278385916
177,3.428,0.026678224129976
178,3.436,0.0234819107476841
179,3.443,0.0263780412594168
180,3.451,0.0228900008620745
181,3.459,0.0230168386947051
182,3.466,0.0340813256278504
183,3.474,0.0283651673039634
184,3.481,0.0552759274604288
185,3.489,0.0818569092520546
186,3.496,0.0477713556964498
187,3.504,0.0379963867283826
188,3.511,0.0369563165008114
189,3.519,0.0306693879300865
190,3.526,0.0285681078361724
191,3.534,0.024543120614027
192,3.541,0.0221839369270973
193,3.549,0.0312655257434504
194,3.556,0.0269868628560438
195,3.564,0.021118499133
196,3.572,0.0339502598674655
197,3.579,0.0312739815989592
198,3.587,0.0272193988825333
199,3.594,0.0256719773244396
200,3.602,0.0380132984394
201,3.609,0.0230971693220378
202,3.617,0.0305044987476667
203,3.624,0.0215159243419093
204,3.632,0.0190341307501033
205,3.639,0.0151063858663081
206,3.647,0.0181039866441453
207,3.654,0.0210297126501586
208,3.662,0.0189368884117531
209,3.670,0.0245811719638162
210,3.677,0.0160449858277748
211,3.685,0.0157828543070048
212,3.692,0.0251181187886192
213,3.700,0.0267585547573087
214,3.707,0.0304749032533862
215,3.715,0.0218795261287838
216,3.722,0.0241752908993982
217,3.730,0.0273335529319009
218,3.737,0.0224756639421477
219,3.745,0.0181462659216889
220,3.752,0.0195879892859237
221,3.760,0.0301155293942661
222,3.767,0.0204335748367946
223,3.775,0.0317897887849904
224,3.783,0.0232831981432294
225,3.790,0.0258410944346138
226,3.798,0.0328848220733682
227,3.805,0.0232874260709838
228,3.813,0.0209113306730366
229,3.820,0.0286399826079964
230,3.828,0.0208817351787562
231,3.835,0.0205984640192144
232,3.843,0.0168905713786456
233,3.850,0.0200742009776745
234,3.858,0.0141424183383153
235,3.865,0.0200657451221658
236,3.873,0.0158124498012853
237,3.881,0.0176727380132012
238,3.888,0.0301282131775291
239,3.896,0.0150471948777471
240,3.903,0.0348677201901604
241,3.911,0.00531873311497778
242,3.918,0.0205900081637057
243,3.926,0.0148231147067664
244,3.933,0.017025865066785
245,3.941,0.0175289884695531
246,3.948,0.0277436619240733
247,3.956,0.0135674201637231
248,3.963,0.0389941776784102
249,3.971,0.0827532299359778
250,3.978,0.0471794458108402
251,3.986,0.0196683199132564
252,3.994,0.0186620731077201
253,4.001,0.0199093117952546
254,4.009,0.0169497623672066
255,4.016,0.0248137079903057
256,4.024,0.00925916178203603
257,4.031,0.0182773316820739
258,4.039,0.00718324925464805
259,4.046,0.0209747495893519
260,4.054,0.0192539829933297
261,4.061,0.0109799283780583
262,4.069,0.0210085730113868
263,4.076,0.0404189893316276
264,4.084,0.0908497115855663
265,4.091,0.484499381010237
266,4.099,0.883522746610692
267,4.107,0.389362550681755
268,4.114,0.0645815964477627
269,4.122,0.0171527028994156
270,4.129,0.0164001317591405
271,4.137,0.0187170361685267
272,4.144,0.0318870311233405
273,4.152,0.019769790179361
274,4.159,0.0207675811293886
275,4.167,0.0194442397422757
276,4.174,0.0193681370426973
277,4.182,0.0200361496278853
278,4.189,0.0276591033689862
279,4.197,0.016298661493036
280,4.205,0.0179264136784625
281,4.212,0.0155207227862348
282,4.220,0.0137619048404234
283,4.227,0.0199177676507634
284,4.235,0.015892780428618
285,4.242,0.0164931461697363
286,4.250,0.0196894595520282
287,4.257,0.0215328360529267
288,4.265,0.0369309489342853
289,4.272,0.0156982957519177
290,4.280,0.00955934465259519
291,4.287,0.021190373904824
292,4.295,0.0177023335074817
293,4.302,0.0244374224201682
294,4.310,0.0166368957133844
295,4.318,0.018433765008985
296,4.325,0.0300098312004072
297,4.333,0.0275999123804252
298,4.340,0.0268557970956588
299,4.348,0.0183703460926697
300,4.355,0.0275956844526709
301,4.363,0.0132418697266378
302,4.370,0.0230760296832661
303,4.378,0.0281622267717543
304,4.385,0.0248728989788667
305,4.393,0.0243824593593616
306,4.400,0.0242260260324504
307,4.408,0.0290585474556775
308,4.416,0.0888921810353003
309,4.423,0.122736742708907
310,4.431,0.0523882528042048
311,4.438,0.0338657013123784
312,4.446,0.034804301273845
313,4.453,0.0317601932907099
314,4.461,0.0219936801781513
315,4.468,0.0132841490041814
316,4.476,0.0156137371968306
317,4.483,0.018171633488215
318,4.491,0.0182942433930913
319,4.498,0.0300817059722312
320,4.506,0.0221543414328168
321,4.513,0.0131403994605333
322,4.521,0.0213552630872438
323,4.529,0.0238666521733303
324,4.536,0.0153093263985171
325,4.544,0.0249659133894625
326,4.551,0.0180109722335495
327,4.559,0.0277901691293712
328,4.566,0.0150767903720276
329,4.574,0.0201418478217441
330,4.581,0.0144426012088745
331,4.589,0.0160703533943009
332,4.596,0.0169159389451718
333,4.604,0.0239765782949435
334,4.611,0.0180532515110931
335,4.619,0.0122863580541537
336,4.627,0.0184168532979676
337,4.634,0.0081599005659039
338,4.642,0.0115676103359135
339,4.649,0.0180870749331279
340,4.657,0.024864443123358
341,4.664,0.0204293469090402
342,4.672,0.0221627972883255
343,4.679,0.0227504792461808
344,4.687,0.0148357984900294
345,4.694,0.0145948066080312
346,4.702,0.0226236414135501
347,4.709,0.0137576769126691
348,4.717,0.0175924073858685
349,4.724,0.0141593300493327
350,4.732,0.0213256675929634
351,4.740,0.0107135689295339
352,4.747,0.0197021433352913
353,4.755,0.0117874625791399
354,4.762,0.0298322582347243
355,4.770,0.0194526955977844
356,4.777,0.0236679395688757
357,4.785,0.0168652038121195
358,4.792,0.0117494112293507
359,4.800,0.018708580313018
360,4.807,0.0177319290017622
361,4.815,0.0226743765466024
362,4.822,0.0265640700806084
363,4.830,0.0562694904827021
364,4.837,0.247545170017447
365,4.845,0.278286432719358
366,4.853,0.103744891236347
367,4.860,0.0157321191739525
368,4.868,0.0199304514340264
369,4.875,0.021059308144439
370,4.883,0.0191102334496817
371,4.890,0.0252999196820565
372,4.898,0.0283397997374372
373,4.905,0.0176008632413772
374,4.913,0.0172922245153093
375,4.920,0.0201503036772528
376,4.928,0.0204927658253556
377,4.935,0.0189664839060336
378,4.943,0.022395333314815
379,4.951,0.0108742301841994
380,4.958,0.0118804769897357
381,4.966,0.0194696073088018
382,4.973,0.0260567187500859
383,4.981,0.0184379929367393
384,4.988,0.0168102407513129
385,4.996,0.0265767538638715
386,5.003,0.0133222003539706
387,5.011,0.0197571063960979
388,5.018,0.00750034383622462
389,5.026,0.00962699149666486
390,5.033,0.0168060128235586
391,5.041,0.0250842953665844
392,5.048,0.0275830006694078
393,5.056,0.0204716261865838
394,5.064,0.0240104017169784
395,5.071,0.0265429304418366
396,5.079,0.0120834175219447
397,5.086,0.0112970229596348
398,5.094,0.0169159389451718
399,5.101,0.021321439665209
400,5.109,0.0303015582154576
401,5.116,0.0309357473786108
402,5.124,0.0304833591088949
403,5.131,0.0264668277422582
404,5.139,0.0217442324406444
405,5.146,0.016501602025245
406,5.154,0.0235664693027712
407,5.162,0.0219091216230643
408,5.169,0.0212072856158414
409,5.177,0.0164550948199471
410,5.184,0.0127472021793784
411,5.192,0.0183026992486
412,5.199,0.026141277305173
413,5.207,0.0165819326525778
414,5.214,0.0205561847416709
415,5.222,0.0224629801588847
416,5.229,0.0175332163973075
417,5.237,0.0317390536519381
418,5.244,0.0218287909957315
419,5.252,0.0174275182034486
420,5.259,0.0249278620396733
421,5.267,0.0225686783527435
422,5.275,0.0234523152534036
423,5.282,0.0166368957133844
424,5.290,0.0222135324213778
425,5.297,0.0212241973268589
426,5.305,0.0117578670848595
427,5.312,0.0246868701576751
428,5.320,0.0220190477446775
429,5.327,0.00919574286572072
430,5.335,0.020581552308197
431,5.342,0.0172710848765375
432,5.350,0.0240822764888024
433,5.357,0.0190975496664186
434,5.365,0.0231901837326336
435,5.373,0.0205265892473904
436,5.380,0.0246826422299207
437,5.388,0.0104176139867291
438,5.395,0.0193808208259604
439,5.403,0.0195457100083802
440,5.410,0.0135462805249513
441,5.418,0.0235157341697189
442,5.425,0.0232958819264925
443,5.433,0.0299675519228637
444,5.440,0.0127725697459045
445,5.448,0.0253252872485826
446,5.455,0.0114450004310372
447,5.463,0.0243909152148703
448,5.470,0.0187593154460703
449,5.478,0.0121087850884709
450,5.486,0.0142734840987003
451,5.493,0.0260355791113141
452,5.501,0.108404067621646
453,5.508,0.160534416832835
454,5.516,0.0928452934856216
455,5.523,0.0324366617314066
456,5.531,0.0140578597832282
457,5.538,0.0229069125730919
458,5.546,0.0215032405586462
459,5.553,0.0139352498783519
460,5.561,0.0110560310776366
461,5.568,0.0114154049367568
462,5.576,0.0148527102010468
463,5.584,0.00833324560383243
464,5.591,0.0127937093846763
465,5.599,0.01522476784343
466,5.606,0.0217019531631009
467,5.614,0.0194907469475736
468,5.621,0.00811762128836036
469,5.629,0.0172795407320462
470,5.636,0.0167003146296997
471,5.644,0.0307962257627171
472,5.651,0.0130093337001483
473,5.659,0.0141339624828066
474,5.666,0.0267881502515892
475,5.674,0.0147216444406619
476,5.681,0.0186197938301766
477,5.689,0.0353074246766132
478,5.697,0.028504688919857
479,5.704,0.0236890792076474
480,5.712,0.0158124498012853
481,5.719,0.0244458782756769
482,5.727,0.0242429377434679
483,5.734,0.02648796738103
484,5.742,0.0254183016591784
485,5.749,0.0230083828391964
486,5.757,0.019376592898206
487,5.764,0.0239004755953652
488,5.772,0.0275830006694078
489,5.779,0.0208056324791778
490,5.787,0.0172879965875549
491,5.794,0.0217442324406444
492,5.802,0.0228688612233027
493,5.810,0.0213721747982613
494,5.817,0.00986798337866306
495,5.825,0.0263103944153471
496,5.832,0.027764801562845
497,5.840,0.0267923781793435
498,5.847,0.0179306416062168
499,5.855,0.0163240290595622
500,5.862,0.0120411382444012
501,5.870,0.0172541731655201
502,5.877,0.0179306416062168
503,5.885,0.0209789775171063
504,5.892,0.0234649990366667
505,5.900,0.016023846189003
506,5.908,0.0213594910149982
507,5.915,0.0080119230945015
508,5.923,0.00440550072003724
509,5.930,0.0164635506754559
510,5.938,0.0216385342467856
511,5.945,0.0266317169246781
512,5.953,0.013351795848251
513,5.960,0.0215159243419093
514,5.968,0.0134067589090577
515,5.975,0.026690907913239
516,5.983,0.0231394485995814
517,5.990,0.0108869139674625
518,5.998,0.0162098750101946
519,6.005,0.0352778291823327
520,6.013,0.0281791384827718
521,6.021,0.0227631630294438
522,6.028,0.0253591106706174
523,6.036,0.0192201595712949
524,6.043,0.013076980544218
525,6.051,0.0190341307501033
526,6.058,0.0218922099120468
527,6.066,0.0270714214111309
528,6.073,0.0391210155110408
529,6.081,0.0916149665091045
530,6.088,0.101719713842011
531,6.096,0.042773945090803
532,6.103,0.0240738206332937
533,6.111,0.0208394559012126
534,6.119,0.0290162681781339
535,6.126,0.0154615317976739
536,6.134,0.0179856046670234
537,6.141,0.0172668569487832
538,6.149,0.030233911371388
539,6.156,0.0127979373124306
540,6.164,0.0292361204213604
541,6.171,0.0225137152919369
542,6.179,0.0176896497242186
543,6.186,0.0231098531053009
544,6.194,0.0159815669114595
545,6.201,0.0192412992100667
546,6.209,0.0304622194701231
547,6.216,0.0142523444599285
548,6.224,0.0163028894207904
549,6.232,0.029160017721782
550,6.239,0.0418564847681081
551,6.247,0.0422285424104913
552,6.254,0.0300901618277399
553,6.262,0.0136900300685994
554,6.269,0.0314261869981159
555,6.277,0.0266528565634498
556,6.284,0.0326184626248438
557,6.292,0.0304072564093165
558,6.299,0.0250293323057778
559,6.307,0.0236467999301039
560,6.314,0.0159688831281964
561,6.322,0.0229238242841093
562,6.330,0.0148653939843099
563,6.337,0.0269784070005351
564,6.345,0.0219556288283622
565,6.352,0.0225813621360066
566,6.360,0.0223572819650258
567,6.367,0.00928452934856216
568,6.375,0.0232831981432294
569,6.382,0.0321153392220757
570,6.390,0.0158293615123027
571,6.397,0.0165396533750342
572,6.405,0.0142269768934024
573,6.412,0.0248475314123405
574,6.420,0.0318236122070252
575,6.427,0.0233635287705622
576,6.435,0.0208267721179495
577,6.443,0.0165988443635952
578,6.450,0.0238708801010847
579,6.458,0.0212664766044024
580,6.465,0.0279043231787387
581,6.473,0.00859960505235675
582,6.480,0.0129374589283243
583,6.488,0.0213129838097003
584,6.495,0.0172584010932745
585,6.503,0.0175966353136228
586,6.510,0.0187424037350528
587,6.518,0.0143876381480679
588,6.525,0.018636705541194
589,6.533,0.0223657378205345
590,6.540,0.0244839296254661
591,6.548,0.0174867091920096
592,6.556,0.0200742009776745
593,6.563,0.0259721601949988
594,6.571,0.0214821009198745
595,6.578,0.0199685027838156
596,6.586,0.0148738498398186
597,6.593,0.0657569603634733
598,6.601,0.0858565289076739
599,6.608,0.0441015144056703
600,6.616,0.0183026992486
601,6.623,0.0262385196435231
602,6.631,0.021190373904824
603,6.638,0.0250039647392516
604,6.646,0.0108657743286907
605,6.654,0.0111997806212847
606,6.661,0.0197105991908
607,6.669,0.012730290468361
608,6.676,0.0215286081251724
609,6.684,0.00632497992051411
610,6.691,0.0209240144562997
611,6.699,0.00867570775193513
612,6.706,0.0210212567946498
613,6.714,0.0114450004310372
614,6.721,0.0201460757494985
615,6.729,0.0161210885273531
616,6.736,0.0174402019867117
617,6.744,0.0189284325562444
618,6.751,0.0201503036772528
619,6.759,0.0186578451799658
620,6.767,0.0169117110174174
621,6.774,0.0205392730306534
622,6.782,0.0104556653365183
623,6.789,0.0193004901986276
624,6.797,0.0327664400962462
625,6.804,0.0389899497506558
626,6.812,0.0196429523467303
627,6.819,0.0187001244575093
628,6.827,0.0133264282817249
629,6.834,0.0135082291751622
630,6.842,0.0213256675929634
631,6.849,0.0203278766429357
632,6.857,0.01293323100057
633,6.865,0.0169920416447501
634,6.872,0.0160492137555291
635,6.880,0.017896818184182
636,6.887,0.0206957063575646
637,6.895,0.0152712750487279
638,6.902,0.0176050911691315
639,6.910,0.014544071474979
640,6.917,0.0196598640577477
641,6.925,0.0151655768548691
642,6.932,0.022598273847024
643,6.940,0.0235115062419646
644,6.947,0.0173979227091682
645,6.955,0.0208732793232474
646,6.962,0.011740955373842
647,6.970,0.0247756566405165
648,6.978,0.0181251262829171
649,6.985,0.0149880038891862
650,6.993,0.0145778948970138
651,7.000,0.010726252712797
652,7.008,0.0185140956363177
653,7.015,0.0162606101432468
654,7.023,0.0128994075785351
655,7.030,0.0159350597061616
656,7.038,0.0163451686983339
657,7.045,0.030914607739839
658,7.053,0.0183238388873718
659,7.060,0.0291219663719928
660,7.068,0.0489128961901255
661,7.076,0.078711331002815
662,7.083,0.0367998831739003
663,7.091,0.0244458782756769
664,7.098,0.0135293688139339
665,7.106,0.0138126399734757
666,7.113,0.0110644869331453
667,7.121,0.0227420233906721
668,7.128,0.0268177457458697
669,7.136,0.0211819180493153
670,7.143,0.0199431352172895
671,7.151,0.0168440641733477
672,7.158,0.0103964743479574
673,7.166,0.0194949748753279
674,7.173,0.0277267502130558
675,7.181,0.00933949240936877
676,7.189,0.0134152147645664
677,7.196,0.0118677932064727
678,7.204,0.0137365372738973
679,7.211,0.0247122377242012
680,7.219,0.0128994075785351
681,7.226,0.0164043596868949
682,7.234,0.0132038183768486
683,7.241,0.0239047035231195
684,7.249,0.0193681370426973
685,7.256,0.0279761979505628
686,7.264,0.0284032186537525
687,7.271,0.014890761550836
688,7.279,0.0247756566405165
689,7.287,0.0237186747019279
690,7.294,0.00617277452135736
691,7.302,0.0166284398578757
692,7.309,0.0104260698422378
693,7.317,0.0125358057916607
694,7.324,0.0194696073088018
