#"+EI TIC Scan ACN-PEEK-EndBlank.d "
#Point,X(Minutes),Y(Counts)
0,2.095,0.134369974777762
1,2.102,0.108293877704278
2,2.110,0.107436408260879
3,2.117,0.108293877704278
4,2.125,0.095323524123594
5,2.132,0.093202415500448
6,2.140,0.102183279670789
7,2.147,0.106515756858492
8,2.155,0.0869474015607027
9,2.162,0.0868300636368691
10,2.170,0.101280680256685
11,2.177,0.113889994071727
12,2.185,0.0886713664416426
13,2.193,0.0929226096820756
14,2.200,0.0728668507006699
15,2.208,0.0600950689910888
16,2.215,0.0593098075008178
17,2.223,0.0581093502800585
18,2.230,0.0803945298143028
19,2.238,0.0646893000088816
20,2.245,0.0707276900892418
21,2.253,0.075791272802369
22,2.260,0.0605012387274359
23,2.268,0.0636332586943791
24,2.275,0.0412397672304423
25,2.283,0.0820914167128196
26,2.291,0.0549502523306922
27,2.298,0.0597069512430238
28,2.306,0.0555279159557192
29,2.313,0.0491645900862813
30,2.321,0.0456715303536962
31,2.328,0.0464567918439673
32,2.336,0.0548148624185765
33,2.343,0.0671895003859515
34,2.351,0.0508343990023749
35,2.358,0.0416820409433536
36,2.366,0.0636422846885202
37,2.373,0.0644817021436375
38,2.381,0.164715367079961
39,2.388,0.350768184309356
40,2.396,0.262141947838419
41,2.404,0.107120498465942
42,2.411,0.0522244021000961
43,2.419,0.0405808696581459
44,2.426,0.0476662750588675
45,2.434,0.060519290715718
46,2.441,0.0517640763989027
47,2.449,0.040409375769466
48,2.456,0.0566742172116321
49,2.464,0.0543635627115242
50,2.471,0.0652850156221907
51,2.479,0.0724606809643228
52,2.486,0.0454188025177469
53,2.494,0.0548599923892817
54,2.502,0.0669728765265664
55,2.509,0.0722260051166556
56,2.517,0.0652308596573444
57,2.524,0.0683538536301465
58,2.532,0.0583169481453026
59,2.539,0.0527569357544179
60,2.547,0.0438031495664996
61,2.554,0.0656370293936915
62,2.562,0.0559431116862073
63,2.569,0.0634076088408529
64,2.577,0.0495617338284873
65,2.584,0.0629202051572364
66,2.592,0.0474496511994824
67,2.599,0.0522334280942372
68,2.607,0.0462852979552874
69,2.615,0.0518001803754669
70,2.622,0.0541108348755749
71,2.630,0.0506087491488487
72,2.637,0.0548960963658459
73,2.645,0.0281340237376425
74,2.652,0.0576941545495704
75,2.660,0.0621981256259527
76,2.667,0.0680920998000562
77,2.675,0.0507080350844003
78,2.682,0.0554196040260266
79,2.690,0.0389471647186164
80,2.697,0.0602575368856277
81,2.705,0.056078501598323
82,2.713,0.0886713664416426
83,2.720,0.0748525694117001
84,2.728,0.0727224347944131
85,2.735,0.0544899266294988
86,2.743,0.0947548864927081
87,2.750,0.0587231178816497
88,2.758,0.0883825346291291
89,2.765,0.0742297758159679
90,2.773,0.0505726451722846
91,2.780,0.0413390531659938
92,2.788,0.0414744430781095
93,2.795,0.0582537661863153
94,2.803,0.060907408463783
95,2.810,0.0636603366768023
96,2.818,0.0488486802913446
97,2.826,0.070772820059947
98,2.833,0.0461318560548896
99,2.841,0.0613406561825533
100,2.848,0.0678393719641069
101,2.856,0.0431893819649084
102,2.863,0.0594361714187924
103,2.871,0.0498325136527187
104,2.878,0.0641026103897135
105,2.886,0.0650232617921003
106,2.893,0.0581003242859175
107,2.901,0.0574504527077621
108,2.908,0.0575677906315957
109,2.916,0.0542371987935495
110,2.923,0.0509336849379264
111,2.931,0.310828160235225
112,2.939,4.3063288826758
113,2.946,19.19609622143
114,2.954,47.3905309378586
115,2.961,85.9884618911696
116,2.969,100
117,2.976,21.6828659192181
118,2.984,0.587276308787202
119,2.991,0.189735422838942
120,2.999,0.150336958413274
121,3.006,0.119043836726265
122,3.014,0.148784487421014
123,3.021,0.110667714163373
124,3.029,0.124197679380802
125,3.037,0.122266116634618
126,3.044,0.111597391559901
127,3.052,0.106407444928799
128,3.059,0.127447037271579
129,3.067,0.115604932958526
130,3.074,0.0991415196452568
131,3.082,0.0788962147868891
132,3.089,0.0835446017695281
133,3.097,0.089718381762004
134,3.104,0.102390877536034
135,3.112,0.119982540116934
136,3.119,0.117572599681274
137,3.127,0.101578538063339
138,3.134,0.0711248338314479
139,3.142,0.0566020092585037
140,3.150,0.0840320054531446
141,3.157,0.075592700931266
142,3.165,0.0933468314067048
143,3.172,0.0863336339591115
144,3.180,0.0936898191840646
145,3.187,0.082163624665948
146,3.195,0.0763599104332549
147,3.202,0.0812971292284075
148,3.210,0.074049255933147
149,3.217,0.0527388837661358
150,3.225,0.0894656539260547
151,3.232,0.155617164985786
152,3.240,0.303724702846221
153,3.248,0.691734138981536
154,3.255,1.18988778162004
155,3.263,1.27098633897735
156,3.270,0.480661265993159
157,3.278,0.0875431171740118
158,3.285,0.0892400040725286
159,3.293,0.0615211760653742
160,3.300,0.0651044957393697
161,3.308,0.0704117802943052
162,3.315,0.0822809625897816
163,3.323,0.0573962967429159
164,3.330,0.0425034064101888
165,3.338,0.0616926699540541
166,3.345,0.0582718181745974
167,3.353,0.0551397982076542
168,3.361,0.0482439386838945
169,3.368,0.0545892125650503
170,3.376,0.0546433685298966
171,3.383,0.0517550504047617
172,3.391,0.0606727326161158
173,3.398,0.0364740423239696
174,3.406,0.0493541359632433
175,3.413,0.0546072645533324
176,3.421,0.0381799552166275
177,3.428,0.0477836129827011
178,3.436,0.0387756708299365
179,3.443,0.0474225732170593
180,3.451,0.0451931526642207
181,3.459,0.0454188025177469
182,3.466,0.0365913802478032
183,3.474,0.0775964716305783
184,3.481,0.098031322365908
185,3.489,0.111741807466158
186,3.496,0.0735076962846842
187,3.504,0.033441308292578
188,3.511,0.0545440825943451
189,3.519,0.049119460115576
190,3.526,0.0590570796648684
191,3.534,0.0408065195116721
192,3.541,0.0578746744323913
193,3.549,0.0526486238247253
194,3.556,0.0560062936451947
195,3.564,0.0496429677757568
196,3.572,0.0306522761029945
197,3.579,0.033251762415616
198,3.587,0.0378730714158319
199,3.594,0.0675505401515934
200,3.602,0.041375157142558
201,3.609,0.0445793850626296
202,3.617,0.0303273403139169
203,3.624,0.0403191158280555
204,3.632,0.0421152886621238
205,3.639,0.0479190028948168
206,3.647,0.059165391594561
207,3.654,0.0394977503612203
208,3.662,0.0456625043595552
209,3.669,0.0585967539636751
210,3.677,0.0389381387244754
211,3.685,0.0331795544624876
212,3.692,0.0362754704528666
213,3.700,0.0260219411086376
214,3.707,0.0361310545466099
215,3.715,0.0558618777389379
216,3.722,0.0423860684863552
217,3.730,0.0356255988747113
218,3.737,0.0387666448357955
219,3.745,0.0503560213128994
220,3.752,0.0488577062854857
221,3.760,0.0506358271312719
222,3.767,0.048731342367511
223,3.775,0.0506719311078361
224,3.783,0.0470073774865711
225,3.790,0.0394074904198098
226,3.798,0.0353277410680567
227,3.805,0.0545711605767682
228,3.813,0.0494082919280895
229,3.820,0.0607720185516673
230,3.828,0.0447960089220147
231,3.835,0.0412848972011475
232,3.843,0.0540747308990107
233,3.850,0.0377647594861393
234,3.858,0.0389200867361933
235,3.865,0.0370336539607145
236,3.873,0.0438573055313458
237,3.880,0.0367087181716369
238,3.888,0.0388388527889239
239,3.896,0.0355443649274418
240,3.903,0.0565388272995164
241,3.911,0.036546250277098
242,3.918,0.0308598739682386
243,3.926,0.0367899521189063
244,3.933,0.0287207133568105
245,3.941,0.0311396797866111
246,3.948,0.0263197989152921
247,3.956,0.0506268011371308
248,3.963,0.0956935898833769
249,3.971,0.112301419102903
250,3.978,0.0648066379327152
251,3.986,0.0498325136527187
252,3.994,0.0225830373408988
253,4.001,0.0320242272124336
254,4.009,0.0534158333267143
255,4.016,0.0257872652609704
256,4.024,0.0314736415698298
257,4.031,0.0187740678133771
258,4.039,0.0320693571831389
259,4.046,0.0386132029353977
260,4.054,0.0355172869450187
261,4.061,0.0552481101373467
262,4.069,0.0656280033995504
263,4.076,0.160852241587593
264,4.084,0.339756471457279
265,4.091,0.666136419597527
266,4.099,0.79137208830455
267,4.107,0.301766062117614
268,4.114,0.056647139229209
269,4.122,0.0298489626244414
270,4.129,0.0246138860226343
271,4.137,0.0433969798301524
272,4.144,0.0249027178351478
273,4.152,0.0324033189663576
274,4.159,0.029966300548275
275,4.167,0.0265183707863952
276,4.174,0.0226462192998861
277,4.182,0.0316090314819455
278,4.189,0.0289553892044778
279,4.197,0.0149921762682785
280,4.205,0.0118782082896174
281,4.212,0.0203355647997782
282,4.220,0.0297587026830309
283,4.227,0.0228989471358354
284,4.235,0.0166529591902311
285,4.242,0.0126454177916064
286,4.250,0.0391006066190142
287,4.257,0.0243972621632492
288,4.265,0.0245777820460701
289,4.272,0.00363747563884181
290,4.280,0.0321054611597031
291,4.287,0.0349305973258507
292,4.295,0.0196134852684944
293,4.302,0.0133584713287491
294,4.310,0.0218248538330509
295,4.318,0.00557806437916685
296,4.325,0.0322769550483829
297,4.333,0.0362574184645845
298,4.340,0.0186386779012614
299,4.348,0.0354721569743135
300,4.355,0.0293344809584017
301,4.363,0.0118962602778995
302,4.370,0.0401295699510936
303,4.378,0.0319429932651642
304,4.385,0.0251193416945329
305,4.393,0.0322769550483829
306,4.400,0.0284409075384381
307,4.408,0.0941230669028348
308,4.416,0.172649215929941
309,4.423,0.100170482977336
310,4.431,0.0426839262930098
311,4.438,0.0304627302260326
312,4.446,0.028621427421259
313,4.453,0.0407072335761205
314,4.461,0.0608713044872188
315,4.468,0.0366094322360853
316,4.476,0.0348764413610044
317,4.483,0.0119594422368869
318,4.491,0.0207507605302663
319,4.498,0.0237925205557991
320,4.506,0.0401656739276577
321,4.513,0.0264371368391257
322,4.521,0.0269245405227423
323,4.529,0.0254171995011875
324,4.536,0.0130786655103766
325,4.544,0.0169688689851678
326,4.551,0.0253630435363412
327,4.559,0.0371419658904071
328,4.566,0.00931482595356018
329,4.574,0.0227635572237197
330,4.581,0.0219512177510255
331,4.589,0.0178353644227082
332,4.596,0.0282964916321813
333,4.604,0.025706031313701
334,4.611,0.0190538736317495
335,4.619,0.0192975754735578
336,4.626,0.0149560722917144
337,4.634,0.0304537042318915
338,4.642,0.0251464196769561
339,4.649,0.0165356212663975
340,4.657,0.0296684427416204
341,4.664,0.0310403938510595
342,4.672,0.0336037761871168
343,4.679,0.0107409330278456
344,4.687,0.0110748948110643
345,4.694,0.0332066324449107
346,4.702,0.0126815217681706
347,4.709,0.0215992039795247
348,4.717,0.0327192287612942
349,4.724,0.0416098329902252
350,4.732,0.0200196550048415
351,4.740,0.0268162285930497
352,4.747,0.020299460823214
353,4.755,0.0312299397280215
354,4.762,0.0114359345767061
355,4.770,0.0249568737999941
356,4.777,0.0220234257041539
357,4.785,0.0320061752241515
358,4.792,0.0217797238623456
359,4.800,0.0309952638803543
360,4.807,0.011219310717321
361,4.815,0.0379994353338065
362,4.822,0.0441641893321414
363,4.830,0.0850519427910829
364,4.837,0.16065366971649
365,4.845,0.136121017641125
366,4.853,0.0599055231141268
367,4.860,0.0169417910027446
368,4.868,0.0252005756418023
369,4.875,0.029379610929107
370,4.883,0.0218790097978972
371,4.890,0.0306703280912766
372,4.898,0.0194690693622377
373,4.905,0.0365101463005338
374,4.913,0.0273487622473714
375,4.920,0.0152088001276637
376,4.928,0.00914333206488029
377,4.935,0.0213103721670112
378,4.943,0.021075696319344
379,4.951,0.0372863817966638
380,4.958,0.0135119132291469
381,4.966,0.0412126892480192
382,4.973,0.0251012897062508
383,4.981,0.0153622420280615
384,4.988,0.00449494508224125
385,4.996,0.0308508479740976
386,5.003,0.0259768111379324
387,5.011,0.019532251321225
388,5.018,0.025715057307842
389,5.026,0.0149741242799964
390,5.033,0.00663410569366931
391,5.041,0.0339467639644766
392,5.048,0.0276917500247312
393,5.056,0.0391367105955784
394,5.064,0.0202362788642267
395,5.071,0.00590300016824453
396,5.079,0.0165626992488207
397,5.086,0.0323581889956524
398,5.094,0.0160301655944989
399,5.101,0.0213193981611523
400,5.109,0
401,5.116,0.00279805818372447
402,5.124,0.0423589905039321
403,5.131,0.019712771204046
404,5.139,0.0166529591902311
405,5.146,0.015669125828857
406,5.154,0.0183498460887479
407,5.162,0.0422506785742395
408,5.169,0.0238015465499401
409,5.177,0.0223754394756547
410,5.184,0.0253810955246233
411,5.192,0.0205251106767402
412,5.199,0.0113727526177188
413,5.207,0.0180339362938113
414,5.214,0.0123024300142466
415,5.222,0.0242618722511335
416,5.229,0.0300475344955444
417,5.237,0.0321054611597031
418,5.244,0.0314646155756887
419,5.252,0.0330983205152182
420,5.259,0.02242056944636
421,5.267,0.0305168861908788
422,5.275,0.000929677396527808
423,5.282,0.0313653296401372
424,5.290,0.0131057434927998
425,5.297,0.0267349946457803
426,5.305,0.0404364537518891
427,5.312,0.0263468768977153
428,5.320,0.0229892070772459
429,5.327,0.0282784396438993
430,5.335,0.0152629560925099
431,5.342,0.0216714119326531
432,5.350,0.0134667832584417
433,5.357,0.0286394794095411
434,5.365,0.0244243401456723
435,5.372,0.00988346358444612
436,5.380,0.0235668707022729
437,5.388,0.0288651292630673
438,5.395,0.0118872342837585
439,5.403,0.0281791537083477
440,5.410,0.00469351695334428
441,5.418,0.0221046596514233
442,5.425,0.00589397417410348
443,5.433,0.0463755578966979
444,5.440,0.00947729384809902
445,5.448,0.0399671020565547
446,5.455,0.0417452229023409
447,5.463,0.0271682423645505
448,5.470,0.0124558719146444
449,5.478,0.039831712144439
450,5.486,0.0223573874873726
451,5.493,0.0532984954028807
452,5.501,0.0471337414045458
453,5.508,0.0556633058678349
454,5.516,0.0558347997565148
455,5.523,0.0292803249935554
456,5.531,0.0384056050701536
457,5.538,0.018358872082889
458,5.546,0.0297948066595951
459,5.553,0.0509427109320675
460,5.561,0.0097841776488946
461,5.568,0.0289553892044778
462,5.576,0.0152358781100868
463,5.583,0.0349125453375686
464,5.591,0.0213825801201396
465,5.599,0.0449584768165535
466,5.606,0.028422855550156
467,5.614,0.0164092573484229
468,5.621,0.033071242532795
469,5.629,0.0271862943528326
470,5.636,0.0438573055313458
471,5.644,0.0401385959452346
472,5.651,0.0308418219799565
473,5.659,0.0324665009253449
474,5.666,0.0407704155351079
475,5.674,0.0321325391421262
476,5.681,0.0158135417351138
477,5.689,0.0322408510718188
478,5.697,0.0244514181280955
479,5.704,0.0182866641297606
480,5.712,0.0457256863185425
481,5.719,0.0246951199699037
482,5.727,0.0213013461728702
483,5.734,0.0290456491458882
484,5.742,0.0207688125185484
485,5.749,0.0393984644256688
486,5.757,0.0241264823390178
487,5.764,0.0288922072454904
488,5.772,0.0232148569307721
489,5.779,0.0395428803319255
490,5.787,0.0210847223134851
491,5.794,0.0317895513647664
492,5.802,0.0286485054036822
493,5.810,0.0348403373844402
494,5.817,0.02397304043862
495,5.825,0.0201821228993804
496,5.832,0.0262385649680227
497,5.840,0.0117608703657838
498,5.847,0.0310494198452006
499,5.855,0.0474677031877645
500,5.862,0.0147845784030345
501,5.870,0.0244062881573902
502,5.877,0.0209673843896514
503,5.885,0.0178624424051314
504,5.892,0.0126183398091833
505,5.900,0.0273307102590894
506,5.908,0.0101722953969596
507,5.915,0.0322589030601008
508,5.923,0.0232238829249131
509,5.930,0.0314826675639708
510,5.938,0.0370246279665735
511,5.945,0.0377737854802804
512,5.953,0.0293074029759786
513,5.960,0.0199564730458542
514,5.968,0.0327282547554353
515,5.975,0.0277549319837186
516,5.983,0.0486049784495364
517,5.990,0.0192524455028526
518,5.998,0.0312389657221626
519,6.005,0.0592014955711252
520,6.013,0.0437850975782175
521,6.021,0.0405537916757227
522,6.028,0.0317353953999201
523,6.036,0.0320693571831389
524,6.043,0.0455902964064268
525,6.051,0.0364469643415465
526,6.058,0.035571442909865
527,6.066,0.0443898391856676
528,6.073,0.04311717401178
529,6.081,0.0503740733011815
530,6.088,0.0466914676916345
531,6.096,0.0521612201411088
532,6.103,0.040797493517531
533,6.111,0.0355443649274418
534,6.119,0.0611150063290271
535,6.126,0.0426839262930098
536,6.134,0.0452021786583618
537,6.141,0.027845191925129
538,6.149,0.0305078601967378
539,6.156,0.0471066634221226
540,6.164,0.0409780134003519
541,6.171,0.0286575313978232
542,6.179,0.0578475964499682
543,6.186,0.023593948684696
544,6.194,0.0372954077908049
545,6.201,0.0261753830090354
546,6.209,0.0382250851873327
547,6.216,0.0519716742641468
548,6.224,0.0334322822984369
549,6.232,0.050464333242592
550,6.239,0.0166619851843722
551,6.247,0.039633140273336
552,6.254,0.027646620054026
553,6.262,0.0542552507818316
554,6.269,0.0357970927633911
555,6.277,0.0400393100096831
556,6.284,0.0350208572672611
557,6.292,0.0497693316937314
558,6.299,0.0354902089625956
559,6.307,0.0259226551730861
560,6.314,0.0171223108855656
561,6.322,0.0172757527859634
562,6.329,0.0347771554254529
563,6.337,0.0400393100096831
564,6.345,0.0386583329061029
565,6.352,0.0306522761029945
566,6.360,0.021851931815474
567,6.367,0.0353999490211851
568,6.375,0.0537227171275099
569,6.382,0.0404364537518891
570,6.390,0.048334198625305
571,6.397,0.0343980636715289
572,6.405,0.0457708162892477
573,6.412,0.0334864382632832
574,6.420,0.0363296264177129
575,6.427,0.0259587591496503
576,6.435,0.0264732408156899
577,6.443,0.0341633878238617
578,6.450,0.0389742427010396
579,6.458,0.0393623604491046
580,6.465,0.0352374811266463
581,6.473,0.0507892690316697
582,6.480,0.0494804998812179
583,6.488,0.0515474525395176
584,6.495,0.0480904967834967
585,6.503,0.0542191468052674
586,6.510,0.0561777875338746
587,6.518,0.0571525949011076
588,6.525,0.0373405377615101
589,6.533,0.0382250851873327
590,6.540,0.0518814143227363
591,6.548,0.0502116054066427
592,6.556,0.0508343990023749
593,6.563,0.0426026923457403
594,6.571,0.0625862433740177
595,6.578,0.0610427983758987
596,6.586,0.058966819723458
597,6.593,0.0473593912580719
598,6.601,0.0554647339967319
599,6.608,0.0531179755200597
600,6.616,0.0708991839779217
601,6.623,0.05027478736563
602,6.631,0.0914784506195081
603,6.638,0.0648517679034204
604,6.646,0.0606727326161158
605,6.654,0.0576038946081599
606,6.661,0.0417000929316357
607,6.669,0.0638498825537642
608,6.676,0.0461228300607485
609,6.684,0.0493992659339485
610,6.691,0.0477745869885601
611,6.699,0.0511322568090295
612,6.706,0.0338565040230661
613,6.714,0.0423048345390858
614,6.721,0.0515925825102228
615,6.729,0.0309772118920722
616,6.736,0.0444439951505139
617,6.744,0.0367809261247652
618,6.751,0.0514030366332609
619,6.759,0.0330261125620898
620,6.767,0.0421333406504059
621,6.774,0.039443594396374
622,6.782,0.0264371368391257
623,6.789,0.0586779879109445
624,6.797,0.0470525074572764
625,6.804,0.0388298267947828
626,6.812,0.0461318560548896
627,6.819,0.0179436763524008
628,6.827,0.0385590469705514
629,6.834,0.0468268576037502
630,6.842,0.0302912363373527
631,6.849,0.0410502213534803
632,6.857,0.0489569922210372
633,6.865,0.0535241452564068
634,6.872,0.0502116054066427
635,6.880,0.0622703335790811
636,6.887,0.0515655045277997
637,6.895,0.0349667013024148
638,6.902,0.0542462247876906
639,6.910,0.0720454852338346
640,6.917,0.0485417964905491
641,6.925,0.0671353444211052
642,6.932,0.0453465945646185
643,6.940,0.0732008124838886
644,6.947,0.0594632494012155
645,6.955,0.0611330583173092
646,6.962,0.0706013261712672
647,6.970,0.062071761707978
648,6.978,0.0475128331584697
649,6.985,0.0600318870321015
650,6.993,0.0534880412798426
651,7.000,0.065158651704216
652,7.008,0.0648156639268562
653,7.015,0.0743561397339426
654,7.023,0.0490743301448708
655,7.030,0.0557535658092454
656,7.038,0.0741304898804164
657,7.045,0.0569720750182867
658,7.053,0.0571977248718128
659,7.060,0.0701680784524969
660,7.068,0.0645539100967659
661,7.075,0.0421694446269701
662,7.083,0.0485417964905491
663,7.091,0.0755565969547018
664,7.098,0.037891123404114
665,7.106,0.0475038071643287
666,7.113,0.0448140609102968
667,7.121,0.0646983260030226
668,7.128,0.0499137475999882
669,7.136,0.068444113571557
670,7.143,0.050852450990657
671,7.151,0.0545892125650503
672,7.158,0.0430088620820874
673,7.166,0.0565207753112343
674,7.173,0.0706464561419724
675,7.181,0.0401476219393756
676,7.189,0.0876514291037043
677,7.196,0.0817574549296008
678,7.204,0.0526305718364432
679,7.211,0.0676949560578501
680,7.219,0.0405808696581459
681,7.226,0.0719552252924242
682,7.234,0.0511593347914526
683,7.241,0.0432796419063188
684,7.249,0.055112720225231
685,7.256,0.0888157823478994
686,7.264,0.0634076088408529
687,7.271,0.0643282602432397
688,7.279,0.0489569922210372
689,7.286,0.0589577937293169
690,7.294,0.0483612766077281
691,7.302,0.0534158333267143
692,7.309,0.0374488496912027
693,7.317,0.0727224347944131
694,7.324,0.0496519937698978
695,7.332,0.0524500519536223
