#"+EI TIC Scan IPA-Blank.d "
#Point,X(Minutes),Y(Counts)
0,2.095,0.244293135114411
1,2.102,0.229191852472424
2,2.110,0.229440752294407
3,2.117,0.20440795872278
4,2.125,0.202673820618796
5,2.132,0.18483872025994
6,2.140,0.189494371028518
7,2.148,0.185817998248072
8,2.155,0.155505264190432
9,2.163,0.161091229047735
10,2.170,0.169937373540529
11,2.178,0.157182277745108
12,2.185,0.173434212023151
13,2.193,0.147981144981616
14,2.200,0.142056513153417
15,2.208,0.143496867860961
16,2.215,0.140538632271812
17,2.223,0.134769052791734
18,2.230,0.135870740528382
19,2.238,0.130966189937821
20,2.246,0.116476956038416
21,2.253,0.122046599595917
22,2.261,0.10835710938682
23,2.268,0.116297421740592
24,2.276,0.120598084238472
25,2.283,0.107230939700468
26,2.291,0.11332286485164
27,2.298,0.0998333105651201
28,2.306,0.102244782610895
29,2.313,0.110474798036156
30,2.321,0.116758498460004
31,2.328,0.101575609319005
32,2.336,0.106810666230562
33,2.343,0.100526965806714
34,2.351,0.0942677473325692
35,2.359,0.100677937829884
36,2.366,0.0953082301949596
37,2.374,0.0900446110087493
38,2.381,0.0882859909550621
39,2.389,0.0831978257417255
40,2.396,0.0934272003927557
41,2.404,0.113388150050849
42,2.411,0.16623651881038
43,2.419,0.382901773684613
44,2.426,0.376389575063535
45,2.434,0.127930428174611
46,2.441,0.0974585614438997
47,2.449,0.10442775645944
48,2.457,0.0965772112545808
49,2.464,0.0971933403221139
50,2.472,0.0841934250296599
51,2.479,0.0863682382283033
52,2.487,0.0807414701214941
53,2.494,0.0927253845012611
54,2.502,0.0868497165724683
55,2.509,0.0972463845464711
56,2.517,0.0851931046425448
57,2.524,0.0808924421446645
58,2.532,0.0941208556343493
59,2.539,0.0861274990562208
60,2.547,0.0911218167956947
61,2.554,0.098935639075999
62,2.562,0.0893468754422052
63,2.570,0.0723564023481127
64,2.577,0.0761103013026193
65,2.585,0.0848666786465007
66,2.592,0.0788400386945376
67,2.600,0.0783463193755209
68,2.607,0.072662426719404
69,2.615,0.0816105793359614
70,2.622,0.0677497154789412
71,2.630,0.0665174573438749
72,2.637,0.0765183337976743
73,2.645,0.0760858193529159
74,2.652,0.0802844737270325
75,2.660,0.0647588372901877
76,2.668,0.0855848158377976
77,2.675,0.062204553871143
78,2.683,0.0574958588782077
79,2.690,0.0835732156371762
80,2.698,0.071364883385129
81,2.705,0.073462170409712
82,2.713,0.0656605891042593
83,2.720,0.0678272416530016
84,2.728,0.0708344411415574
85,2.735,0.0748168382932947
86,2.743,0.115571123899394
87,2.750,0.094414639030789
88,2.758,0.0795948988103894
89,2.765,0.069512415857579
90,2.773,0.0710547786888871
91,2.781,0.105994601240451
92,2.788,0.0918440343119421
93,2.796,0.0714056866346345
94,2.803,0.0619026098248023
95,2.811,0.0669662930884355
96,2.818,0.0866334593500891
97,2.826,0.081859479157945
98,2.833,0.0660604609494133
99,2.841,0.0572714410059274
100,2.848,0.0786156208222573
101,2.856,0.0815167318620987
102,2.863,0.0651791107600943
103,2.871,0.0683821658462765
104,2.878,0.0685004952698425
105,2.886,0.0771222218903558
106,2.894,0.0623881684939178
107,2.901,0.0923214323311566
108,2.909,0.0729358084910909
109,2.916,0.0730296559649536
110,2.924,0.0680802217999358
111,2.931,0.0814677679626921
112,2.939,0.0669418111387322
113,2.946,0.0687453147668755
114,2.954,0.072617543144948
115,2.961,0.69727040949978
116,2.969,8.78720419888287
117,2.976,38.648238123847
118,2.984,78.9766642951818
119,2.992,100
120,2.999,2.63630203087566
121,3.007,0.143721285733242
122,3.014,0.132271893921997
123,3.022,0.123943950697923
124,3.029,0.114387829663734
125,3.037,0.0841689430799566
126,3.044,0.11095219605537
127,3.052,0.118500797213889
128,3.059,0.0873107932918805
129,3.067,0.0913176723933211
130,3.074,0.0931987021955249
131,3.082,0.0836099385617311
132,3.089,0.0799335657812851
133,3.097,0.0880044485334741
134,3.105,0.0840791759310445
135,3.112,0.0836099385617311
136,3.120,0.0788033157699826
137,3.127,0.0907668285249968
138,3.135,0.117293021028526
139,3.142,0.0889021200225952
140,3.150,0.0551496720316411
141,3.157,0.0704264086465023
142,3.165,0.0796193807600927
143,3.172,0.0867354674738529
144,3.180,0.0711690277875025
145,3.187,0.0895794539643866
146,3.195,0.0716260241819642
147,3.203,0.0724747317716787
148,3.210,0.0692390340858921
149,3.218,0.0684188887708315
150,3.225,0.0684433707205348
151,3.233,0.064138627897704
152,3.240,0.0646037849420667
153,3.248,0.0641631098474073
154,3.255,0.246863739833258
155,3.263,1.0398381710482
156,3.270,1.11274541726464
157,3.278,0.291135265546732
158,3.285,0.0792113482650377
159,3.293,0.067733394179139
160,3.300,0.065917649576144
161,3.308,0.0688350819157876
162,3.316,0.092562171503239
163,3.323,0.0787339502458232
164,3.331,0.064383447394737
165,3.338,0.0561207893698722
166,3.346,0.0616292280531154
167,3.353,0.0484375374879855
168,3.361,0.0510938290307939
169,3.368,0.0582343976942573
170,3.376,0.0491719959790846
171,3.383,0.0446305943091218
172,3.391,0.046262724289342
173,3.398,0.0436717179457424
174,3.406,0.0410317477027362
175,3.414,0.0394036980474666
176,3.421,0.0520608660440744
177,3.429,0.0563003236676964
178,3.436,0.0565533038146305
179,3.444,0.0484130555382822
180,3.451,0.0580303814467298
181,3.459,0.0534155339276571
182,3.466,0.0515426647753544
183,3.474,0.0474623398248039
184,3.481,0.0578508471489056
185,3.489,0.100212780785521
186,3.496,0.0965731309296302
187,3.504,0.0442756060384239
188,3.511,0.0326711618790582
189,3.519,0.050783724334552
190,3.527,0.0481641557162986
191,3.534,0.0432473641508852
192,3.542,0.0416437964453188
193,3.549,0.0412316836253132
194,3.557,0.0419661421164123
195,3.564,0.0456751574964628
196,3.572,0.0280563143599855
197,3.579,0.0404645825346097
198,3.587,0.0505919490618762
199,3.594,0.0405339480587691
200,3.602,0.0429372594546433
201,3.609,0.0404768235094614
202,3.617,0.0347847702034434
203,3.625,0.0356824416925645
204,3.632,0.0476500347725292
205,3.640,0.0441287143402041
206,3.647,0.036975904701889
207,3.655,0.0377634074173453
208,3.662,0.0387141231308235
209,3.670,0.0550395032579763
210,3.677,0.0461933587651827
211,3.685,0.0365841935066362
212,3.692,0.045246723376655
213,3.700,0.0356987629923667
214,3.707,0.0414561014975935
215,3.715,0.0378817368409112
216,3.722,0.0348174128030478
217,3.730,0.0360251889884107
218,3.738,0.046181117790331
219,3.745,0.0361067954874217
220,3.753,0.0398239715173733
221,3.760,0.040970542828478
222,3.768,0.0383999381096311
223,3.775,0.0441939995394129
224,3.783,0.0432473641508852
225,3.790,0.0315898757671623
226,3.798,0.0472379219525236
227,3.805,0.0444388190364459
228,3.813,0.0448550121814021
229,3.820,0.0382448857615102
230,3.828,0.0314593053687447
231,3.835,0.0427332432071158
232,3.843,0.0355314696693941
233,3.851,0.0298516573382278
234,3.858,0.0411949607007583
235,3.866,0.0387386050805268
236,3.873,0.0270484740971995
237,3.881,0.0308798992257665
238,3.888,0.0408644543797637
239,3.896,0.033789170915509
240,3.903,0.035404979595927
241,3.911,0.0409950247781813
242,3.918,0.0371064751003066
243,3.926,0.0469767811556884
244,3.933,0.0289295038994033
245,3.941,0.0298557376631783
246,3.949,0.0329731059253989
247,3.956,0.026154882933029
248,3.964,0.0490536665555186
249,3.971,0.0954347202684266
250,3.979,0.065799320152578
251,3.986,0.0440226258914898
252,3.994,0.0271341609211611
253,4.001,0.0220500760327751
254,4.009,0.0364821853828724
255,4.016,0.0296109181661453
256,4.024,0.0455568280728968
257,4.031,0.0275585147160184
258,4.039,0.0357191646171194
259,4.046,0.0317000445408272
260,4.054,0.0264201040548148
261,4.062,0.0261630435829301
262,4.069,0.0243228170302318
263,4.077,0.0344216212828444
264,4.084,0.0755921000338993
265,4.092,0.345880985408268
266,4.099,0.593621995105895
267,4.107,0.26592293767728
268,4.114,0.0657911595026769
269,4.122,0.0315531528426073
270,4.129,0.0123225813506626
271,4.137,0.0194509090392744
272,4.144,0.0275870769906722
273,4.152,0.0279543062362218
274,4.160,0.0306024371291291
275,4.167,0.0346052359056191
276,4.175,0.0189163864707523
277,4.182,0.0229559081717973
278,4.190,0.021760372961286
279,4.197,0.0232292899434842
280,4.205,0.0185736391749061
281,4.212,0.025310255668265
282,4.220,0.0162070507035868
283,4.227,0.0295089100423815
284,4.235,0.0253428982678694
285,4.242,0.0268077349251171
286,4.250,0.0251184803955891
287,4.257,0.0244819497033032
288,4.265,0.0276156392653261
289,4.273,0.0222092087058466
290,4.280,0.0330424714495583
291,4.288,0.0174107465639992
292,4.295,0.0350907945747347
293,4.303,0.0238413386860668
294,4.310,0.0223397791042642
295,4.318,0.0303739389318982
296,4.325,0.0152073710907019
297,4.333,0.0177861364594498
298,4.340,0.0246125201017209
299,4.348,0.0251960065696496
300,4.355,0.0219113449844564
301,4.363,0.0299332638372388
302,4.371,0.0236291617886382
303,4.378,0.025428585091831
304,4.386,0.0270321527973973
305,4.393,0.0236169208137865
306,4.401,0.0208545408222638
307,4.408,0.0362618478355427
308,4.416,0.130419426394447
309,4.423,0.136674564543641
310,4.431,0.0464096159875619
311,4.438,0.0336830824667947
312,4.446,0.0311777629471567
313,4.453,0.0490577468804692
314,4.461,0.0247104479005341
315,4.468,0.0271708838457161
316,4.476,0.0308146140265577
317,4.484,0.0271504822209633
318,4.491,0.0210585570697913
319,4.499,0.0201323233060164
320,4.506,0.0208912637468188
321,4.514,0.0163906653263615
322,4.521,0.0286683631025681
323,4.529,0.0224744298276324
324,4.536,0.0181860083046038
325,4.544,0.0188715028962963
326,4.551,0.029549713291887
327,4.559,0.0235965191890338
328,4.566,0.0154440299378338
329,4.574,0.0271994461203699
330,4.581,0.0181166427804444
331,4.589,0.0195569974879887
332,4.597,0.0154848331873393
333,4.604,0.0258039749872816
334,4.612,0.0223152971545609
335,4.619,0.023612840488836
336,4.627,0.0210871193444452
337,4.634,0.0276727638146338
338,4.642,0.0200221545323515
339,4.649,0.0108414233936128
340,4.657,0.010939351192426
341,4.664,0.0325936357049977
342,4.672,0.0152196120655535
343,4.679,0.0195773991127415
344,4.687,0.0244493071036988
345,4.695,0.0173373007148893
346,4.702,0.0218378991353465
347,4.710,0.0186348440491643
348,4.717,0.0205036328765165
349,4.725,0.0223846626787203
350,4.732,0.0203567411782967
351,4.740,0.0186593259988676
352,4.747,0.0215277944391047
353,4.755,0.0233843422916052
354,4.762,0.0184145065018346
355,4.770,0.0275585147160184
356,4.777,0.0272932935942326
357,4.785,0.0229273458971435
358,4.792,0.0183492213026258
359,4.800,0.0122940190760088
360,4.808,0.0223765020288192
361,4.815,0.0159214279570482
362,4.823,0.0179044658830158
363,4.830,0.0409011773043186
364,4.838,0.0907178646255902
365,4.845,0.0976584973664767
366,4.853,0.0407828478807527
367,4.860,0.0219807105086158
368,4.868,0.0228661410228852
369,4.875,0.0420110256908684
370,4.883,0.0205974803503791
371,4.890,0.0241432827324076
372,4.898,0.0243881022294406
373,4.906,0.0142729766770258
374,4.913,0.0271994461203699
375,4.921,0.0245880381520176
376,4.928,0.0103109811500412
377,4.936,0.0120736815286791
378,4.943,0.02030777727889
379,4.951,0.024702287250633
380,4.958,0.018410426176884
381,4.966,0.0109679134670799
382,4.973,0.0174474694885541
383,4.981,0.0159663115315043
384,4.988,0.0156113232608064
385,4.996,0.024465628403501
386,5.003,0.0196304433370987
387,5.011,0.0238903025854734
388,5.019,0.0115391589601569
389,5.026,0.015660287160213
390,5.034,0.0234618684656656
391,5.041,0.0160193557558614
392,5.049,0.0149095073693117
393,5.056,0.0244615480785505
394,5.064,0.0226009199010994
395,5.071,0.0133957068126574
396,5.079,0.0244819497033032
397,5.086,0.0215033124894014
398,5.094,0.0232088883187315
399,5.101,0.0273871410680952
400,5.109,0.0244982710031055
401,5.117,0.0247920543995451
402,5.124,0.0175821202119223
403,5.132,0.0208137375727583
404,5.139,0.0101355271771675
405,5.147,0.0182145705792576
406,5.154,0.0173454613647904
407,5.162,0.0146810091720808
408,5.169,0.0214951518395003
409,5.177,0.0136568476094927
410,5.184,0.0113473836874811
411,5.192,0
412,5.199,0.0138731048318718
413,5.207,0.0242167285815175
414,5.214,0.0266730842017489
415,5.222,0.0271137592964084
416,5.230,0.0145422781237621
417,5.237,0.0198058973099723
418,5.245,0.0176066021616256
419,5.252,0.019899744783835
420,5.260,0.00993151092964002
421,5.267,0.0234822700904184
422,5.275,0.0230742375953633
423,5.282,0.0216461238626706
424,5.290,0.0181778476547027
425,5.297,0.0207362113986979
426,5.305,0.0161662474540812
427,5.312,0.0117431752076845
428,5.320,0.0217562926363355
429,5.328,0.0216706058123739
430,5.335,0.0204220263775055
431,5.343,0.0223438594292148
432,5.350,0.0107271742949974
433,5.358,0.0140403981548444
434,5.365,0.0198140579598734
435,5.373,0.0138363819073169
436,5.380,0.0119798340548164
437,5.388,0.0191979288923403
438,5.395,0.0228947032975391
439,5.403,0.0190387962192688
440,5.410,0.0273381771686886
441,5.418,0.02942322321842
442,5.425,0.02082597854761
443,5.433,0.0202832953291867
444,5.441,0.0094214703108212
445,5.448,0.0206464442497857
446,5.456,0.0180187149816312
447,5.463,0.0310186302740852
448,5.471,0.0211279225939507
449,5.478,0.0262772926815455
450,5.486,0.0252490507940068
451,5.493,0.0270933576716556
452,5.501,0.0297578098643651
453,5.508,0.0395097864961809
454,5.516,0.0237882944617097
455,5.523,0.0153461021390206
456,5.531,0.0153828250635755
457,5.538,0.0191081617434282
458,5.546,0.0231599244193249
459,5.554,0.0276972457643371
460,5.561,0.0179411888075707
461,5.569,0.016549797999433
462,5.576,0.032854776501833
463,5.584,0.0205566771008736
464,5.591,0.0176963693105377
465,5.599,0.0249756690223199
466,5.606,0.0184675507261918
467,5.614,0.0350989552246358
468,5.621,0.022523393727039
469,5.629,0.0162152113534879
470,5.636,0.0131876102401794
471,5.644,0.0289499055241561
472,5.652,0.0196386039869998
473,5.659,0.0238699009607207
474,5.667,0.0357314055919711
475,5.674,0.0178759036083619
476,5.682,0.0259508666855014
477,5.689,0.0301413604097168
478,5.697,0.0258937421361937
479,5.704,0.0251144000706386
480,5.712,0.0269791085730402
481,5.719,0.0184389884515379
482,5.727,0.030076075210508
483,5.734,0.0306105977790302
484,5.742,0.0247226888753857
485,5.749,0.0299047015625849
486,5.757,0.0212380913676156
487,5.765,0.0241228811076548
488,5.772,0.0312552891212171
489,5.780,0.0281052782593921
490,5.787,0.0211442438937529
491,5.795,0.0256162800395563
492,5.802,0.0196386039869998
493,5.810,0.0231925670189293
494,5.817,0.0339360626137289
495,5.825,0.0304555454309092
496,5.832,0.0276564425148316
497,5.840,0.0262038468324356
498,5.847,0.00856460207120559
499,5.855,0.0235271536648744
500,5.863,0.0166232438485429
501,5.870,0.0287499696015791
502,5.878,0.0204383476773077
503,5.885,0.0380939137383399
504,5.893,0.0174556301384552
505,5.900,0.0226090805510006
506,5.908,0.0238617403108196
507,5.915,0.0221888070810938
508,5.923,0.0186307637242138
509,5.930,0.0264037827550126
510,5.938,0.0163090588273505
511,5.945,0.0261018387086718
512,5.953,0.0183002574032192
513,5.960,0.0194427483893733
514,5.968,0.010694531695393
515,5.976,0.0199323873834394
516,5.983,0.0261712042328312
517,5.991,0.0296435607657497
518,5.998,0.0172679351907299
519,6.006,0.0193937844899667
520,6.013,0.0284276239304856
521,6.021,0.0223969036535719
522,6.028,0.0147585353461413
523,6.036,0.0234985913902206
524,6.043,0.0239270255100284
525,6.051,0.0289825481237605
526,6.058,0.0168190994461693
527,6.066,0.0283378567815735
528,6.074,0.0255836374399519
529,6.081,0.0270647953970017
530,6.089,0.0200017529075988
531,6.096,0.0190877601186754
532,6.104,0.0214625092398958
533,6.111,0.0271708838457161
534,6.119,0.0268199758999687
535,6.126,0.0171781680418178
536,6.134,0.0116330064340196
537,6.141,0.0235965191890338
538,6.149,0.0289580661740572
539,6.156,0.0212258503927639
540,6.164,0.0174352285137025
541,6.171,0.0242004072817153
542,6.179,0.0222744939050554
543,6.187,0.0217358910115827
544,6.194,0.0173985055891475
545,6.202,0.0228294180983303
546,6.209,0.0207729343232528
547,6.217,0.0337034840915475
548,6.224,0.0293824199689144
549,6.232,0.0350826339248336
550,6.239,0.0268730201243259
551,6.247,0.0276972457643371
552,6.254,0.0291580020966342
553,6.262,0.024783893749644
554,6.269,0.0277380490138426
555,6.277,0.0289580661740572
556,6.284,0.0149870335433721
557,6.292,0.0161336048544768
558,6.300,0.0242452908561713
559,6.307,0.0191285633681809
560,6.315,0.022723329649616
561,6.322,0.0167782961966638
562,6.330,0.0165416373495319
563,6.337,0.0244778693783527
564,6.345,0.0246125201017209
565,6.352,0.0139424703560312
566,6.360,0.0224132249533741
567,6.367,0.0206546048996868
568,6.375,0.0147095714467347
569,6.382,0.0198099776349229
570,6.390,0.0221398431816872
571,6.398,0.0163131391523011
572,6.405,0.0203240985786922
573,6.413,0.0206423639248352
574,6.420,0.0220541563577257
575,6.428,0.0167986978214166
576,6.435,0.0187898963972852
577,6.443,0.0166722077479495
578,6.450,0.0160275164057625
579,6.458,0.0129060678185914
580,6.465,0.0224173052783247
581,6.473,0.0185777194998566
582,6.480,0.0258692601864904
583,6.488,0.0231599244193249
584,6.495,0.0161091229047735
585,6.503,0.0109352708674755
586,6.511,0.02579173401243
587,6.518,0.0212748142921705
588,6.526,0.0153909857134766
589,6.533,0.0226539641254566
590,6.541,0.0215604370387091
591,6.548,0.0245268332777593
592,6.556,0.0135915624102839
593,6.563,0.0224213856032752
594,6.571,0.0296966049901068
595,6.578,0.0206382835998846
596,6.586,0.0174597104634058
597,6.593,0.0282032060582053
598,6.601,0.025954947010452
599,6.609,0.0170190353687463
600,6.616,0.0248450986239022
601,6.624,0.0209687899208792
602,6.631,0.0178146987341037
603,6.639,0.0103721860242995
604,6.646,0.0198548612093789
605,6.654,0.013962871980784
606,6.661,0.0232700931929897
607,6.669,0.0258202962870838
608,6.676,0.0152073710907019
609,6.684,0.027289213269282
610,6.691,0.0232864144927919
611,6.699,0.0295129903673321
612,6.706,0.0226172412009017
613,6.714,0.023857659985869
614,6.722,0.0265343531534302
615,6.729,0.0212136094179123
616,6.737,0.024257531831023
617,6.744,0.023975989409435
618,6.752,0.0186389243741149
619,6.759,0.0271178396213589
620,6.767,0.0188551815964941
621,6.774,0.0224621888527807
622,6.782,0.0216665254874234
623,6.789,0.0197732547103679
624,6.797,0.0119716734049153
625,6.804,0.0170394369934991
626,6.812,0.0233965832664568
627,6.820,0.035441702520482
628,6.827,0.0258202962870838
629,6.835,0.0213237781915771
630,6.842,0.0239025435603251
631,6.850,0.0180758395309389
632,6.857,0.0301699226843707
633,6.865,0.0292722511952496
634,6.872,0.0193121779909557
635,6.880,0.0184022655269829
636,6.887,0.021234011042665
637,6.895,0.0303331356823927
638,6.902,0.0259386257106498
639,6.910,0.0264201040548148
640,6.917,0.014252575052273
641,6.925,0.0239188648601273
642,6.933,0.0291580020966342
643,6.940,0.033017989499855
644,6.948,0.0275095508166118
645,6.955,0.0214584289149453
646,6.963,0.0252449704690562
647,6.970,0.0154195479881305
648,6.978,0.0322876113337064
649,6.985,0.0170679992681529
650,6.993,0.0248410182989517
651,7.000,0.030031191636052
652,7.008,0.0249103838231111
653,7.015,0.0218827827098026
654,7.023,0.0388406132042906
655,7.031,0.0374655436959551
656,7.038,0.0493433696270077
657,7.046,0.0302270472336784
658,7.053,0.0185613982000544
659,7.061,0.0272851329443315
660,7.068,0.0260324731845125
661,7.076,0.0351560797739435
662,7.083,0.0363516149844548
663,7.091,0.0397301240435106
664,7.098,0.0267954939502654
665,7.106,0.034433862257696
666,7.113,0.0337850905905585
667,7.121,0.0230089523961545
668,7.128,0.0299536654619915
669,7.136,0.0270566347471006
670,7.144,0.0348296537778994
671,7.151,0.0251388820203419
672,7.159,0.0156072429358558
673,7.166,0.0317938920146898
674,7.174,0.0259671879853036
675,7.181,0.0295905165413925
676,7.189,0.0285214714043483
677,7.196,0.0183737032523291
678,7.204,0.0326834028539098
679,7.211,0.0281705634586009
680,7.219,0.0333892990703551
681,7.226,0.0402768875868844
682,7.234,0.034515468756707
683,7.241,0.0467931665329136
684,7.249,0.0430433479033577
685,7.257,0.0421946403136432
686,7.264,0.0432677657756379
687,7.272,0.0355396303192952
688,7.279,0.0367555671545593
689,7.287,0.0287866925261341
690,7.294,0.0282072863831559
691,7.302,0.0283949813308812
692,7.309,0.0233965832664568
693,7.317,0.0375104272704111
694,7.324,0.0212788946171211
695,7.332,0.0295211510172332
696,7.339,0.0273218558688864
