#"+EI TIC Scan IPA-EndBlank.d "
#Point,X(Minutes),Y(Counts)
0,2.095,0.223120031953872
1,2.102,0.208873417923431
2,2.110,0.201019359605995
3,2.117,0.195481033947102
4,2.125,0.179789111246906
5,2.132,0.174752797562942
6,2.140,0.163445382676036
7,2.148,0.159797698890464
8,2.155,0.140587643882097
9,2.163,0.153089361451294
10,2.170,0.159044680928071
11,2.178,0.163161988819222
12,2.185,0.147765605426847
13,2.193,0.129004932105714
14,2.200,0.118041638330655
15,2.208,0.128923962432339
16,2.215,0.127571768886966
17,2.223,0.124721636384144
18,2.230,0.122187285607487
19,2.238,0.116138851006328
20,2.245,0.106207920566807
21,2.253,0.115511336037666
22,2.261,0.107252429353353
23,2.268,0.114438487865439
24,2.276,0.100969182699404
25,2.283,0.0972283837894504
26,2.291,0.111009422197982
27,2.298,0.0925928699886958
28,2.306,0.0941474877175078
29,2.313,0.103762636430863
30,2.321,0.0901394888854144
31,2.328,0.098548189465473
32,2.336,0.0904350281932354
33,2.343,0.0853865690582652
34,2.351,0.0841639269902933
35,2.359,0.0863622536224415
36,2.366,0.0903945433565476
37,2.374,0.0976777654766851
38,2.381,0.0825890668431374
39,2.389,0.0889735255888054
40,2.396,0.0940867604624761
41,2.404,0.106904259757838
42,2.411,0.152862646365842
43,2.419,0.371375503904641
44,2.426,0.334955344820285
45,2.434,0.11692830532174
46,2.441,0.0890625922295186
47,2.449,0.0776215773815428
48,2.456,0.0830829818507287
49,2.464,0.0932689667613823
50,2.472,0.0753949113637131
51,2.479,0.087038350395128
52,2.487,0.0805445825904028
53,2.494,0.0795891404445705
54,2.502,0.0885727257055961
55,2.509,0.0623345030482248
56,2.517,0.0672372167711189
57,2.524,0.0792693102347368
58,2.532,0.0716055306497339
59,2.539,0.0793340859734373
60,2.547,0.0830303515630345
61,2.554,0.101969158165593
62,2.562,0.0817145943706806
63,2.570,0.0678525862887737
64,2.577,0.0739738935959709
65,2.585,0.0752613114026433
66,2.592,0.0716338700354153
67,2.600,0.0777632743099501
68,2.607,0.0718039063495041
69,2.615,0.0687796890489245
70,2.622,0.0702088037840043
71,2.630,0.073694548222825
72,2.637,0.0695003191419676
73,2.645,0.0649052901779009
74,2.652,0.0701318825942975
75,2.660,0.0658121505197079
76,2.667,0.0651967810020531
77,2.675,0.064625944804755
78,2.683,0.0679335559621493
79,2.690,0.070585312765201
80,2.698,0.0686663315061987
81,2.705,0.0582819708957748
82,2.713,0.0638445874566802
83,2.720,0.0617677153345954
84,2.728,0.0679659438314995
85,2.735,0.0661522231478855
86,2.743,0.0900342283100261
87,2.750,0.0798765827850539
88,2.758,0.0830344000467033
89,2.765,0.08487241163233
90,2.773,0.0658242959707142
91,2.781,0.0828684122162833
92,2.788,0.0806376977147848
93,2.796,0.0605207823646108
94,2.803,0.0653020415774415
95,2.811,0.0565856562385554
96,2.818,0.0839898421925357
97,2.826,0.0704395673531249
98,2.833,0.0575977771557508
99,2.841,0.0677635196480605
100,2.848,0.0768240260987929
101,2.856,0.0615329032818061
102,2.863,0.0652170234203971
103,2.871,0.0671076652937179
104,2.878,0.0739293602756143
105,2.886,0.0695610463969993
106,2.894,0.0646542841904365
107,2.901,0.0851639024564822
108,2.909,0.0613831093860612
109,2.916,0.0679052165764678
110,2.924,0.0809737218592937
111,2.931,0.072010379016612
112,2.939,0.0594317402577087
113,2.946,0.0639903328687563
114,2.954,0.0725569243118974
115,2.961,0.6446967333514
116,2.969,8.45046878606946
117,2.976,34.8253965914844
118,2.984,76.3244027292286
119,2.991,100
120,2.999,2.78162811066255
121,3.007,0.146733242091307
122,3.014,0.108466974453987
123,3.022,0.101669570374103
124,3.029,0.0862246051777029
125,3.037,0.0889694771051366
126,3.044,0.100074467808604
127,3.052,0.110377858745652
128,3.059,0.0902730888464842
129,3.067,0.0901799737221022
130,3.074,0.0881881197570618
131,3.082,0.0640632055747944
132,3.089,0.0675772893992965
133,3.097,0.0868885564993831
134,3.105,0.0745892631136256
135,3.112,0.0714314458519763
136,3.120,0.0606746247440245
137,3.127,0.0728727060380624
138,3.135,0.107305059641047
139,3.142,0.082022279129508
140,3.150,0.0628769998598415
141,3.157,0.0581605163857113
142,3.165,0.0750386448008604
143,3.172,0.0754556386187448
144,3.180,0.0691116647097646
145,3.187,0.0710144520340918
146,3.195,0.0771681472106393
147,3.202,0.0672574591894628
148,3.210,0.0605450732666235
149,3.218,0.0567273531669628
150,3.225,0.0587556434850222
151,3.233,0.0537922025070964
152,3.240,0.0593710130026769
153,3.248,0.0608932428621387
154,3.255,0.21442388903333
155,3.263,0.913131443009941
156,3.270,1.03049293608424
157,3.278,0.296425925744494
158,3.285,0.0759616990773425
159,3.293,0.0568609531280326
160,3.300,0.0534561783625875
161,3.308,0.0573265287499424
162,3.316,0.058314358765125
163,3.323,0.0733463786273098
164,3.331,0.0462822653015072
165,3.338,0.0445171264219186
166,3.346,0.0411487880094926
167,3.353,0.0488732948495272
168,3.361,0.0428936844707373
169,3.368,0.0439746296103019
170,3.376,0.0412661940358872
171,3.383,0.042011115030943
172,3.391,0.0376670920543407
173,3.398,0.0401245216412909
174,3.406,0.036642825686139
175,3.413,0.0328170086191408
176,3.421,0.0444442537158805
177,3.429,0.0303919669015408
178,3.436,0.0322583178728489
179,3.444,0.0498773187993849
180,3.451,0.0524400089617235
181,3.459,0.0445292718729249
182,3.466,0.0324931299256383
183,3.474,0.0437074296881623
184,3.481,0.0458126411959286
185,3.489,0.0947952451045128
186,3.496,0.0863258172694225
187,3.504,0.0397439641764255
188,3.511,0.0417196242067907
189,3.519,0.0309020758438072
190,3.527,0.0371691285630806
191,3.534,0.0334931053918272
192,3.542,0.0329708509985545
193,3.549,0.0387035038735487
194,3.557,0.032165202748467
195,3.564,0.0373756012301884
196,3.572,0.026630925573243
197,3.579,0.0286835067933151
198,3.587,0.049913755152404
199,3.594,0.0507679852065168
200,3.602,0.0420313574492869
201,3.609,0.0320761361077538
202,3.617,0.0309223182621511
203,3.624,0.0196594366956017
204,3.632,0.035015335251289
205,3.640,0.0379747768131681
206,3.647,0.0425859997119099
207,3.655,0.0345740505313918
208,3.662,0.0297644519328797
209,3.670,0.0345416626620416
210,3.677,0.0377440132440475
211,3.685,0.035015335251289
212,3.692,0.0333392630124135
213,3.700,0.0414443273173136
214,3.707,0.0339262931443868
215,3.715,0.042213539214382
216,3.722,0.0385982432981604
217,3.730,0.0347238444271367
218,3.737,0.0312745363413351
219,3.745,0.0394808127379547
220,3.753,0.0400354550005777
221,3.760,0.0401731034453163
222,3.768,0.0331732751819935
223,3.775,0.0276349495231008
224,3.783,0.0344687899560035
225,3.790,0.023392138638218
226,3.798,0.0356266562852749
227,3.805,0.0374241830342138
228,3.813,0.032072087624085
229,3.820,0.0244528413594387
230,3.828,0.0299385367306373
231,3.835,0.0346469232374299
232,3.843,0.034274462739902
233,3.851,0.033201614567675
234,3.858,0.0303190941955027
235,3.866,0.0269386103320704
236,3.873,0.0292381490559381
237,3.881,0.0418127393311727
238,3.888,0.0369909952816542
239,3.896,0.0322745118075241
240,3.903,0.0285620522832517
241,3.911,0.0316429483551942
242,3.918,0.0273070223459295
243,3.926,0.0353877957488169
244,3.933,0.0290114339704864
245,3.941,0.0315133968777932
246,3.948,0.0173801403900779
247,3.956,0.0278414221902086
248,3.964,0.0512416577957642
249,3.971,0.100876067575022
250,3.979,0.0466587742827038
251,3.986,0.031221906053641
252,3.994,0.0281086221123482
253,4.001,0.0369424134776288
254,4.009,0.025594513754035
255,4.016,0.0343149475765898
256,4.024,0.0296429974228163
257,4.031,0.0297118216451855
258,4.039,0.0318210816366206
259,4.046,0.0348129110678499
260,4.054,0.0249710472690427
261,4.062,0.0225986358391369
262,4.069,0.0346185838517484
263,4.077,0.0296268034881411
264,4.084,0.0822247033129471
265,4.092,0.33048581884995
266,4.099,0.60061684316571
267,4.107,0.255742713356911
268,4.114,0.0516829425156614
269,4.122,0.0307603789153999
270,4.129,0.0344890323743474
271,4.137,0.031294778759679
272,4.144,0.0263110953634093
273,4.152,0.0269993375871021
274,4.159,0.023189714454779
275,4.167,0.0258738591271809
276,4.175,0.0244083080390821
277,4.182,0.0245054716471329
278,4.190,0.0274730101763495
279,4.197,0.0209347090512678
280,4.205,0.0320073118853845
281,4.212,0.0266592649589245
282,4.220,0.0238496172927903
283,4.227,0.0173437040370588
284,4.235,0.0335943174835468
285,4.242,0.0412742910032248
286,4.250,0.0314445726554239
287,4.257,0.0240156051232103
288,4.265,0.0285782462179268
289,4.273,0.0249629503017051
290,4.280,0.0376387526686592
291,4.288,0.026205834788021
292,4.295,0.0191007459493099
293,4.303,0.0333514084634199
294,4.310,0.0281653008837111
295,4.318,0.0325295662786573
296,4.325,0.0345173717600289
297,4.333,0.0266066346712303
298,4.340,0.0232301992914668
299,4.348,0.0232342477751356
300,4.355,0.0204772303966955
301,4.363,0.0226836539961813
302,4.370,0.0256552410090667
303,4.378,0.0278414221902086
304,4.386,0.0351084503756709
305,4.393,0.0165218618522963
306,4.401,0.0185056188499991
307,4.408,0.0346914565577865
308,4.416,0.124349175886616
309,4.423,0.127361247736189
310,4.431,0.0439300962899453
311,4.438,0.0316753362245445
312,4.446,0.0287482825320156
313,4.453,0.0231816174874414
314,4.461,0.030444597189235
315,4.468,0.0224650358780671
316,4.476,0.0317279665122386
317,4.484,0.0304769850585852
318,4.491,0.0262098832716898
319,4.499,0.0262139317553586
320,4.506,0.0273556041499549
321,4.514,0.0134854991007103
322,4.521,0.0188821278311957
323,4.529,0.0145057169852432
324,4.536,0.0226431691594935
325,4.544,0.0220844784132017
326,4.551,0.0329951419005671
327,4.559,0.0271572284501846
328,4.566,0.0262706105267215
329,4.574,0.0284851310935448
330,4.581,0.0216431936933045
331,4.589,0.0193922367734622
332,4.597,0.0204812788803643
333,4.604,0.0307563304317311
334,4.612,0.0190966974656411
335,4.619,0.0208092060575356
336,4.627,0.0195784670222261
337,4.634,0.0332704387900443
338,4.642,0.0316186574531815
339,4.649,0.0111900088605114
340,4.657,0.0186513642620752
341,4.664,0.021894199680769
342,4.672,0.0295255913964216
343,4.679,0.0224650358780671
344,4.687,0.0198740063300471
345,4.694,0.0307482334643935
346,4.702,0.0224731328454047
347,4.710,0.0165623466889841
348,4.717,0.0269709982014206
349,4.725,0.0121494994900125
350,4.732,0.0255661743683536
351,4.740,0.0396751399540562
352,4.747,0.0173396555533901
353,4.755,0.0247969624712851
354,4.762,0.0166149769766782
355,4.770,0.0164813770156084
356,4.777,0.0258617136761746
357,4.785,0.0211330847510381
358,4.792,0.0217808421380431
359,4.800,0.0240317990578855
360,4.808,0.0185865885233747
361,4.815,0.0164408921789206
362,4.823,0.0216310482422982
363,4.830,0.0414483758009824
364,4.838,0.0855323144703413
365,4.845,0.0875889441740822
366,4.853,0.044897683886784
367,4.860,0.0245742958695022
368,4.868,0.0178457160119877
369,4.875,0.0124571842488399
370,4.883,0.0188375945108391
371,4.890,0.0247969624712851
372,4.898,0.0279750221512784
373,4.905,0.0218537148440812
374,4.913,0.0235986113053259
375,4.921,0.020764672737179
376,4.928,0.0154125773270502
377,4.936,0.0229103690816331
378,4.943,0.012639366013935
379,4.951,0.0199306851014101
380,4.958,0.0275823192354066
381,4.966,0.0234771567952624
382,4.973,0.0250196290730681
383,4.981,0.027983119118616
384,4.988,0.0176959221162428
385,4.996,0.0134207233620098
386,5.003,0.020376018304976
387,5.011,0.0253597017012457
388,5.019,0.0176756796978989
389,5.026,0.0244649868104451
390,5.034,0.0167688193560919
391,5.041,0.0267685740179816
392,5.049,0.020505569782377
393,5.056,0.0213476543854835
394,5.064,0.0285580037995829
395,5.071,0.0153882864250375
396,5.079,0.0160441407793801
397,5.086,0.0189347581188899
398,5.094,0.0204003092069887
399,5.101,0.0191614732043416
400,5.109,0.0181048189667897
401,5.116,0.0247240897652471
402,5.124,0.0147243351033574
403,5.132,0.0171250859189447
404,5.139,0.0202910001479316
405,5.147,0.0154814015494195
406,5.154,0.0136190990617801
407,5.162,0.0103803121267551
408,5.169,0.0215824664382728
409,5.177,0.0134531112313601
410,5.184,0.0257605015844551
411,5.192,0.0165744921399904
412,5.199,0.00792693102347368
413,5.207,0.0174287221941033
414,5.214,0.0183801158562668
415,5.222,0.00821032488028836
416,5.230,0.0148093532604018
417,5.237,0.0223030965313159
418,5.245,0.0122021297777067
419,5.252,0.0155421288044512
420,5.260,0.0122264206797194
421,5.267,0.0135259839373981
422,5.275,0.0171129404679383
423,5.282,0.00752613114026433
424,5.290,0.00863136718184161
425,5.297,0.0214205270915216
426,5.305,0.0104977181531498
427,5.312,0.00749779175458286
428,5.320,0.00984591228247599
429,5.327,0.0117203602211217
430,5.335,0.0207889636391917
431,5.343,0.0264892286448357
432,5.350,0.00745730691789505
433,5.358,0.0148012562930642
434,5.365,0.0133114143029527
435,5.373,0.00870019140421089
436,5.380,0.011400530011288
437,5.388,0.0135786142250923
438,5.395,0.0192626852960612
439,5.403,0.0131251840541888
440,5.410,0.00767187655234046
441,5.418,0.020023800225792
442,5.425,0.0126474629812726
443,5.433,0.0163194376688572
444,5.440,0.0143761655078422
445,5.448,0.0171777162066388
446,5.456,0.0195825155058949
447,5.463,0.0117770389924846
448,5.471,0.0162951467668445
449,5.478,0.0136798263168118
450,5.486,0.0121899843267003
451,5.493,0.0184489400786361
452,5.501,0.0275418343987188
453,5.508,0.0256228531397165
454,5.516,0.0215338846342474
455,5.523,0.0261815438860083
456,5.531,0.0146069290769627
457,5.538,0.0126272205629287
458,5.546,0.00819817942928202
459,5.554,0.0154854500330883
460,5.561,0.0128822750340619
461,5.569,0.0123235842877701
462,5.576,0.020930660567599
463,5.584,0.00885403378362458
464,5.591,0.00851800963911574
465,5.599,0.0143478261221607
466,5.606,0.0145745412076125
467,5.614,0.0177242615019243
468,5.621,0.0129065659360746
469,5.629,0.0141373049713841
470,5.636,0.0211087938490254
471,5.644,0.00714962215906768
472,5.651,0.00544925901817955
473,5.659,0.0138296202125567
474,5.667,0.0204974728150394
475,5.674,0.0144854745668993
476,5.682,0.0174975464164725
477,5.689,0.00622251939891677
478,5.697,0.015230395561955
479,5.704,0.0162708558648318
480,5.712,0.01684169206213
481,5.719,0.0155745166738014
482,5.727,0.0117972814108285
483,5.734,0.0188618854128518
484,5.742,0.0168821768988178
485,5.749,0.00951393662163592
486,5.757,0.0233678477362053
487,5.765,0.0167161890683978
488,5.772,0.00738038572818821
489,5.780,0.0233880901545492
490,5.787,0.00922649428115246
491,5.795,0.0137972323432065
492,5.802,0.0173234616187149
493,5.810,0.0214853028302221
494,5.817,0.0137931838595377
495,5.825,0.0112750270175558
496,5.832,0.0112750270175558
497,5.840,0.0145583472729374
498,5.847,0.0100523849495838
499,5.855,0.0127851114260112
500,5.862,0.0114086269786255
501,5.870,0.0137972323432065
502,5.878,0.010068578884259
503,5.885,0.0130806507338322
504,5.893,0.0152465894966302
505,5.900,0.0114774512009948
506,5.908,0.00918196096079586
507,5.915,0.0156838257328585
508,5.923,0.0155947590921454
509,5.930,0.0190076308249279
510,5.938,0.010234566714679
511,5.945,0.0117446511231344
512,5.953,0.0145259594035871
513,5.960,0.0194610609958314
514,5.968,0.0118296692801788
515,5.976,0.0230925508467282
516,5.983,0.0120037540779364
517,5.991,0.00789049467045464
518,5.998,0.016230371028144
519,6.006,0.0147000442013447
520,6.013,0.0200399941604672
521,6.021,0.0213557513528211
522,6.028,0.00761519778097752
523,6.036,0.01328712340094
524,6.043,0.0147526744890389
525,6.051,0.0192060065246982
526,6.058,0.00876496714291139
527,6.066,0.0152789773659804
528,6.073,0.0151170380192292
529,6.081,0.0263637256511035
530,6.089,0.0157931347919156
531,6.096,0.0162749043485006
532,6.104,0.00970016687039986
533,6.111,0.0157000196675337
534,6.119,0.0148012562930642
535,6.126,0.00702411916533546
536,6.134,0.0105382029898376
537,6.141,0.0170157768598876
538,6.149,0.0117729905088159
539,6.156,0.00820627639661958
540,6.164,0.0136150505781113
541,6.171,0.0191655216880104
542,6.179,0.0165380557869714
543,6.187,0.00154652076147444
544,6.194,0.00127932083933487
545,6.202,0.0154692560984131
546,6.209,0.0133235597539591
547,6.217,0.0148134017440706
548,6.224,0.0133842870089908
549,6.232,0.0177242615019243
550,6.239,0.0140887231673587
551,6.247,0.0152830258496492
552,6.254,0.0134409657803537
553,6.262,0.0179793159730575
554,6.269,0.0164570861135958
555,6.277,0.00389059280569878
556,6.284,0.00927912456884661
557,6.292,0.00899573071203192
558,6.300,0.0155623712227951
559,6.307,0.0108782756180152
560,6.315,0.0129187113870809
561,6.322,0.0102467121656853
562,6.330,0.0136636323821367
563,6.337,0.0111981058278489
564,6.345,0.0209549514696117
565,6.352,0.0106798999182449
566,6.360,0.00704436158367936
567,6.367,0.0140118019776519
568,6.375,0.0140037050103143
569,6.382,0.0156028560594829
570,6.390,0.0149146138357901
571,6.397,0.0145947836259564
572,6.405,0.00368816862225971
573,6.413,0.0150320198621848
574,6.420,0.0190521641452845
575,6.428,0.0129065659360746
576,6.435,0.0185380067193493
577,6.443,0.0191290853349914
578,6.450,0.0174773039981286
579,6.458,0.00907670038540755
580,6.465,0.0073601433098443
581,6.473,0.0124895721181901
582,6.480,0.0199144911667349
583,6.488,0.000692290707361593
584,6.495,0.00816579155993177
585,6.503,0.00633182845797387
586,6.511,0.0161898861914562
587,6.518,0.0168335950947924
588,6.526,0.00805648250087468
589,6.533,0.0107730150426269
590,6.541,0.0109470998403845
591,6.548,0.0192222004593733
592,6.556,0.00870423988787967
593,6.563,0.0127162872036419
594,6.571,0.0133316567212966
595,6.578,0.0103762636430863
596,6.586,0.0204448425273453
597,6.593,0.0177566493712745
598,6.601,0.0145947836259564
599,6.608,0.0102305182310102
600,6.616,0.0153558985556873
601,6.624,0.0180602856464331
602,6.631,0.011048311932104
603,6.639,0.00441689568264034
604,6.646,0.0176028069918608
605,6.654,0.0186958975824318
606,6.661,0.0121009176859871
607,6.669,0.00895119739167533
608,6.676,0.0140158504613207
609,6.684,0.00590673767275183
610,6.691,0.011473402717326
611,6.699,0.0153518500720185
612,6.706,0.00707270096936083
613,6.714,0.00984996076614477
614,6.722,0.0164206497605767
615,6.729,0.0139753656246329
616,6.737,0.0123600206407891
617,6.744,0.00903216706505095
618,6.752,0.0143883109588485
619,6.759,0.0186513642620752
620,6.767,0.012307390353095
621,6.774,0
622,6.782,0.00787025225211074
623,6.789,0.00721034941409939
624,6.797,0.00607272550317187
625,6.804,0.0130685052828259
626,6.812,0.0226067328064745
627,6.819,0.0111576209911611
628,6.827,0.00823056729863227
629,6.835,0.00893095497333142
630,6.842,0.0219225390664504
631,6.850,0.0123195358041013
632,6.857,0.0143964079261861
633,6.865,0.0147850623583891
634,6.872,0.0176230494102048
635,6.880,0.0109390028730469
636,6.887,0.0114288693969695
637,6.895,0.00989854257017014
638,6.902,0.0155137894187697
639,6.910,0.0145988321096252
640,6.917,0.0157809893409093
641,6.925,0.0104977181531498
642,6.933,0.014546201821931
643,6.940,0.0120604328492993
644,6.948,0.0104896211858122
645,6.955,0.00840870058005864
646,6.963,0.00484603495153115
647,6.970,0.0146271714953066
648,6.978,0.0184651340133113
649,6.985,0.0149389047378028
650,6.993,0.0166433163623597
651,7.000,0.0175582736715043
652,7.008,0.0175015949001413
653,7.015,0.010400554545099
654,7.023,0.0205905879394214
655,7.030,0.0206877515474722
656,7.038,0.0267726225016504
657,7.046,0.0244042595554133
658,7.053,0.0182019825748405
659,7.061,0.00589459222174549
660,7.068,0.0204084061743262
661,7.076,0.022707944898194
662,7.083,0.0182303219605219
663,7.091,0.00896739132635046
664,7.098,0.0205501031027336
665,7.106,0.0183315340522415
666,7.113,0.0257281137151048
667,7.121,0.00868804595320455
668,7.128,0.0122547600654008
669,7.136,0.0191857641063543
670,7.143,0.0131008931521761
671,7.151,0.0198497154280344
672,7.159,0.0205784424884151
673,7.166,0.0249912896873866
674,7.174,0.00719820396309305
675,7.181,0.0129268083544185
676,7.189,0.0132061537275644
677,7.196,0.0185946854907123
678,7.204,0.00694314949195983
679,7.211,0.00893500345700021
680,7.219,0.0254852046949779
681,7.226,0.0250560654260871
682,7.234,0.027076258776809
683,7.241,0.0212990725814581
684,7.249,0.021635096725967
685,7.257,0.0256349985907228
686,7.264,0.0246836049285592
687,7.272,0.0160603347140552
688,7.279,0.0123924085101394
689,7.287,0.0310397242885458
690,7.294,0.0205703455210775
691,7.302,0.0255418834663409
692,7.309,0.0109430513567157
693,7.317,0.0129591962237688
