#"+EI TIC Scan MEOH-Blank.d "
#Point,X(Minutes),Y(Counts)
0,2.095,0.188981402590101
1,2.102,0.196308681252811
2,2.110,0.180641928178155
3,2.117,0.154604943182079
4,2.125,0.157705190539802
5,2.132,0.149792238864956
6,2.140,0.155935439481389
7,2.147,0.144037364919613
8,2.155,0.156642066702554
9,2.162,0.156164615877443
10,2.170,0.145075024712855
11,2.178,0.131076166520588
12,2.185,0.137932360369188
13,2.193,0.135736086573675
14,2.200,0.100723026065505
15,2.208,0.111023231865908
16,2.215,0.109005206378437
17,2.223,0.111354264437986
18,2.230,0.115441243500939
19,2.238,0.124296364804006
20,2.245,0.101194110879615
21,2.253,0.0996217061622477
22,2.260,0.106815298593926
23,2.268,0.108642343751353
24,2.275,0.100665731966491
25,2.283,0.0761693216327749
26,2.291,0.105924057053718
27,2.298,0.108979742334432
28,2.306,0.10421796610532
29,2.313,0.119801961036957
30,2.321,0.0958593936603697
31,2.328,0.111150552085938
32,2.336,0.0996599022282566
33,2.343,0.0817968753580881
34,2.351,0.0839931491536006
35,2.358,0.0924726758075794
36,2.366,0.0775380139980943
37,2.373,0.084285985659669
38,2.381,0.0896907289999302
39,2.389,0.120896914929212
40,2.396,0.231780094553088
41,2.404,0.335870740438379
42,2.411,0.236026223891079
43,2.419,0.121438025864339
44,2.426,0.10781476232116
45,2.434,0.106178697493778
46,2.441,0.0976928048287976
47,2.449,0.106821664604928
48,2.456,0.102639195376952
49,2.464,0.0838467309005665
50,2.471,0.097501824498753
51,2.479,0.082949123349357
52,2.486,0.0952100605382182
53,2.494,0.102040790342812
54,2.502,0.0889968338007683
55,2.509,0.102225404661855
56,2.517,0.0889459057127564
57,2.524,0.0936121917768453
58,2.532,0.0927909763576537
59,2.539,0.1037023192142
60,2.547,0.0758319230496961
61,2.554,0.0971262298496654
62,2.562,0.0873225729073776
63,2.569,0.0809310978618861
64,2.577,0.0713184212496429
65,2.584,0.0863995013121622
66,2.592,0.0853491094969171
67,2.600,0.0816631891270569
68,2.607,0.0692685657071645
69,2.615,0.071935924316787
70,2.622,0.0912567677062957
71,2.630,0.0764048640398298
72,2.637,0.0766531384688878
73,2.645,0.0818159733910926
74,2.652,0.0651497565892033
75,2.660,0.0780536608892146
76,2.667,0.0694468140152061
77,2.675,0.0699242648403175
78,2.682,0.0804218169817672
79,2.690,0.0844642339677106
80,2.697,0.0820642478201505
81,2.705,0.0733428127481153
82,2.713,0.0840058811756036
83,2.720,0.0725343293509266
84,2.728,0.104230698127323
85,2.735,0.114467243817712
86,2.743,0.108750565938378
87,2.750,0.10151877744069
88,2.758,0.0716430878107186
89,2.765,0.0993225036451779
90,2.773,0.117853961670502
91,2.780,0.0826180907772797
92,2.788,0.069733284510273
93,2.795,0.0693831539051912
94,2.803,0.0877427296334756
95,2.810,0.103931495610253
96,2.818,0.0699369968623205
97,2.826,0.0654107630402642
98,2.833,0.0672059781426832
99,2.841,0.0804982091137851
100,2.848,0.0696696244002581
101,2.856,0.0699879249503324
102,2.863,0.066626671141548
103,2.871,0.0769205109309502
104,2.878,0.0772006154150155
105,2.886,0.0733428127481153
106,2.893,0.077639870174118
107,2.901,0.0865968476532082
108,2.908,0.0977437329168095
109,2.916,0.0717513099977439
110,2.924,0.0905246764411248
111,2.931,0.0638001622568884
112,2.939,0.0722223948118538
113,2.946,0.0939304923269196
114,2.954,1.3014036290337
115,2.961,16.2555136021284
116,2.969,59.2291435474367
117,2.976,100
118,2.984,19.1981767235211
119,2.991,0.329854860041975
120,2.999,0.14753867097043
121,3.006,0.133660766987191
122,3.014,0.112500146418253
123,3.021,0.105535730382628
124,3.029,0.0844578679567091
125,3.037,0.121711764337403
126,3.044,0.116166968755109
127,3.052,0.0925808979946047
128,3.059,0.0899199053959837
129,3.067,0.117974915879531
130,3.074,0.080956561905892
131,3.082,0.0762266157317882
132,3.089,0.105472070272613
133,3.097,0.105230161854556
134,3.104,0.0592230003468203
135,3.112,0.0746542110144213
136,3.119,0.112092721714158
137,3.127,0.124557371255067
138,3.135,0.0799761962116632
139,3.142,0.0812812284669678
140,3.150,0.0962795503864678
141,3.157,0.081427646720002
142,3.165,0.0838530969115679
143,3.172,0.0795433074635622
144,3.180,0.0999591047453264
145,3.187,0.0740303419362757
146,3.195,0.0896588989449228
147,3.202,0.0636919400698631
148,3.210,0.0637874302348854
149,3.217,0.0674224225167337
150,3.225,0.070611794028478
151,3.232,0.0610373134822437
152,3.240,0.0794541833095414
153,3.248,0.181615927861382
154,3.255,1.27119690683165
155,3.263,3.04923651156857
156,3.270,1.70745327475245
157,3.278,0.237464942377415
158,3.285,0.0758446550716991
159,3.293,0.0602542941290609
160,3.300,0.103052986092048
161,3.308,0.102855639751002
162,3.315,0.0892960363178381
163,3.323,0.0614893002633491
164,3.330,0.0701343432033665
165,3.338,0.0555243479549572
166,3.346,0.0739730478372623
167,3.353,0.0651433905782019
168,3.361,0.0520803360031535
169,3.368,0.0483434875452814
170,3.376,0.0703189575224096
171,3.383,0.0657417956123415
172,3.391,0.0608654311852036
173,3.398,0.0514564669250079
174,3.406,0.0606553528221545
175,3.413,0.0427604958969786
176,3.421,0.0523859045312248
177,3.428,0.0548686488218041
178,3.436,0.0514246368700004
179,3.443,0.0564601515721755
180,3.451,0.0572177068813523
181,3.459,0.0362607986644618
182,3.466,0.0499668203506603
183,3.474,0.0691794415531437
184,3.481,0.0874817231824147
185,3.489,0.122303803360541
186,3.496,0.0704908398194497
187,3.504,0.0437535936132103
188,3.511,0.0540919954796229
189,3.519,0.0399530850453235
190,3.526,0.0611137056142615
191,3.534,0.0565874717922052
192,3.541,0.0589301638407519
193,3.549,0.0433398028981138
194,3.556,0.0383934123499595
195,3.564,0.0468220109159264
196,3.572,0.0442055803943158
197,3.579,0.0603625163160862
198,3.587,0.0741703941783084
199,3.594,0.0535254205004907
200,3.602,0.0633736395197889
201,3.609,0.0398575948803012
202,3.617,0.057803379893489
203,3.624,0.0580962163995573
204,3.632,0.0628388945956641
205,3.639,0.0513609767599856
206,3.647,0.0629216527386834
207,3.654,0.0604007123820951
208,3.662,0.0442819725263336
209,3.670,0.0384698044819773
210,3.677,0.0341472830119686
211,3.685,0.0398512288692997
212,3.692,0.0498267681086276
213,3.700,0.0427159338199682
214,3.707,0.0515137610240212
215,3.715,0.068383690177958
216,3.722,0.0516347152330495
217,3.730,0.0373175564907084
218,3.737,0.0464336842448358
219,3.745,0.0269791546242959
220,3.752,0.0382406280859238
221,3.760,0.056020896813073
222,3.767,0.0517684014640807
223,3.775,0.0475286381370913
224,3.783,0.0445811750434035
225,3.790,0.0377631772608124
226,3.798,0.0624251038805675
227,3.805,0.0338671785279032
228,3.813,0.0468602069819353
229,3.820,0.0476750563901254
230,3.828,0.0545885443377388
231,3.835,0.0438681818112371
232,3.843,0.0532898780934357
233,3.850,0.0582744647075989
234,3.858,0.0549577729758249
235,3.865,0.0429387442050202
236,3.873,0.0430596984140484
237,3.881,0.0508007677918549
238,3.888,0.0507816697588504
239,3.896,0.0574532492884073
240,3.903,0.0480952131162235
241,3.911,0.0526214469382797
242,3.918,0.0545758123157358
243,3.926,0.0429833062820306
244,3.933,0.0417546661587439
245,3.941,0.039055477494114
246,3.948,0.0385016345369847
247,3.956,0.046331828068812
248,3.963,0.0749024854434792
249,3.971,0.118382340583626
250,3.978,0.0649269462041513
251,3.986,0.0369037657756119
252,3.994,0.0316836367543937
253,4.001,0.0442183124163188
254,4.009,0.0476814224011269
255,4.016,0.0552060474048829
256,4.024,0.0335870740438379
257,4.031,0.036158942488438
258,4.039,0.0510490422209128
259,4.046,0.0603115882280743
260,4.054,0.0583635888616197
261,4.061,0.0349239363541498
262,4.069,0.0502150947797182
263,4.076,0.0453005342865713
264,4.084,0.184467900790047
265,4.092,1.0382963943423
266,4.099,1.86524758944627
267,4.107,0.821832922258783
268,4.114,0.11763115128545
269,4.122,0.0451668480555401
270,4.129,0.031989205282465
271,4.137,0.035726053740337
272,4.144,0.0411562611246042
273,4.152,0.0430978944800573
274,4.159,0.0468474749599323
275,4.167,0.0313653362043194
276,4.174,0.0389663533400932
277,4.182,0.0433970969971271
278,4.189,0.0375149028317545
279,4.197,0.0386989808780308
280,4.205,0.025381285862923
281,4.212,0.0436262733931806
282,4.220,0.0305695848291337
283,4.227,0.0388772291860724
284,4.235,0.050501565274785
285,4.242,0.0424230973138999
286,4.250,0.0448803775604733
287,4.257,0.048954624601424
288,4.265,0.0346438318700845
289,4.272,0.0453069002975728
290,4.280,0.0292263565078203
291,4.287,0.0500050164166692
292,4.295,0.0339881327369315
293,4.303,0.0513800747929901
294,4.310,0.0286534155176866
295,4.318,0.0458543772437006
296,4.325,0.042372169225888
297,4.333,0.0388581311530679
298,4.340,0.0418374243017632
299,4.348,0.0346310998480815
300,4.355,0.0346056358040756
301,4.363,0.0459180373537154
302,4.370,0.0513164146829752
303,4.378,0.0350194265191721
304,4.385,0.038387046338958
305,4.393,0.0446702991974243
306,4.400,0.02759665769144
307,4.408,0.0610500455042466
308,4.416,0.149104709676795
309,4.423,0.165229815543558
310,4.431,0.0624123718585645
311,4.438,0.0376740531067916
312,4.446,0.0583826868946242
313,4.453,0.0416082479057097
314,4.461,0.0394119741101972
315,4.468,0.0371584062156713
316,4.476,0.0339881327369315
317,4.483,0.0508835259348742
318,4.491,0.0414427316196711
319,4.498,0.0433589009311182
320,4.506,0.0409716468055611
321,4.513,0.0401122353203606
322,4.521,0.037483072776747
323,4.529,0.0389408892960872
324,4.536,0.0323966299865601
325,4.544,0.0409270847285507
326,4.551,0.0165134325378536
327,4.559,0.0371265761606639
328,4.566,0.0173028179020378
329,4.574,0.0405387580574601
330,4.581,0.037483072776747
331,4.589,0.0339308386379181
332,4.596,0.0451350180005327
333,4.604,0.0445111489223871
334,4.611,0.0572622689583627
335,4.619,0.050947186044889
336,4.627,0.0492856571735013
337,4.634,0.0419647445217929
338,4.642,0.0346820279360934
339,4.649,0.0652707107982316
340,4.657,0.0324411920635705
341,4.664,0.0354459492562717
342,4.672,0.0227839533743169
343,4.679,0.0345356096830592
344,4.687,0.0364135829284975
345,4.694,0.0302576502900609
346,4.702,0.0516792773100599
347,4.709,0.045007697780503
348,4.717,0.0312316499732882
349,4.724,0.0455297106826248
350,4.732,0.0501578006807048
351,4.740,0.0449504036814896
352,4.747,0.0378204713598258
353,4.755,0.0280359124505425
354,4.762,0.0318427870294308
355,4.770,0.033077793163719
356,4.777,0.0331159892297279
357,4.785,0.037731347205805
358,4.792,0.0285197292866554
359,4.800,0.0272847231523672
360,4.807,0.0246173645427447
361,4.815,0.0327149305366344
362,4.822,0.0573832231673909
363,4.830,0.0779709027461953
364,4.838,0.254538583883399
365,4.845,0.297216321637358
366,4.853,0.146736553584242
367,4.860,0.0457779851116827
368,4.868,0.0373557525567173
369,4.875,0.053162557873406
370,4.883,0.0370247199846401
371,4.890,0.0402459215513918
372,4.898,0.0375912949637723
373,4.905,0.0448549135164673
374,4.913,0.0403605097494185
375,4.920,0.0479551608741908
376,4.928,0.0401631634083725
377,4.935,0.0384698044819773
378,4.943,0.036642759324551
379,4.951,0.0309451794782214
380,4.958,0.0263934816121592
381,4.966,0.0334915838788156
382,4.973,0.037928693546851
383,4.981,0.0307032710601649
384,4.988,0.0306396109501501
385,4.996,0.0310024735772347
386,5.003,0.0290099121337698
387,5.011,0.0302003561910476
388,5.018,0.0250056912138353
389,5.026,0.0348921062991424
390,5.033,0.0350767206181855
391,5.041,0.0327403945806403
392,5.049,0.0432761427880989
393,5.056,0.0478087426211566
394,5.064,0.0401949934633799
395,5.071,0.0523986365532277
396,5.079,0.0467137887289011
397,5.086,0.0311043297532585
398,5.094,0.0305504867961293
399,5.101,0.0469429651249546
400,5.109,0.0445429789773945
401,5.116,0.0462872659918016
402,5.124,0.0353122630252405
403,5.131,0.0363435568074811
404,5.139,0.0442246784273203
405,5.146,0.0330714271527175
406,5.154,0.0259542268530567
407,5.162,0.047000259223968
408,5.169,0.037508536820753
409,5.177,0.0381451379209015
410,5.184,0.0357833478393504
411,5.192,0.0385652946469996
412,5.199,0.0430915284690558
413,5.207,0.0340772568909523
414,5.214,0.0381960660089134
415,5.222,0.0324730221185779
416,5.229,0.025158475477871
417,5.237,0.0381133078658941
418,5.244,0.0350385245521766
419,5.252,0.0320528653924799
420,5.259,0.029786565475951
421,5.267,0.0334215577577993
422,5.275,0.0293154806618411
423,5.282,0.0307669311701798
424,5.290,0.0228603455063347
425,5.297,0.0432061166670826
426,5.305,0.0389281572740843
427,5.312,0.0367446155005747
428,5.320,0.0283860430556242
429,5.327,0.0339754007149285
430,5.335,0.0337971524068869
431,5.342,0.0456570309026545
432,5.350,0.030887885379208
433,5.357,0.0479551608741908
434,5.365,0.0465610044648655
435,5.373,0.0251839395218769
436,5.380,0.0366936874125628
437,5.388,0.0385589286359981
438,5.395,0.0338862765609077
439,5.403,0.0339626686929255
440,5.410,0.038151503931903
441,5.418,0.0431870186340781
442,5.425,0.0427986919629875
443,5.433,0.0296974413219302
444,5.440,0.0303913365210921
445,5.448,0.0374194126667322
446,5.455,0.0341154529569612
447,5.463,0.0256295602919809
448,5.470,0.0455360766936263
449,5.478,0.046541906431861
450,5.486,0.0408634246185359
451,5.493,0.0340963549239567
452,5.501,0.0836493845595204
453,5.508,0.0980174713898734
454,5.516,0.069064853355117
455,5.523,0.0307669311701798
456,5.531,0.0423085091158731
457,5.538,0.0348029821451216
458,5.546,0.0466310305858818
459,5.553,0.0362798966974663
460,5.561,0.03462473383708
461,5.568,0.0343255313200102
462,5.576,0.0189134186854136
463,5.584,0.0224592868132411
464,5.591,0.0202311829627211
465,5.599,0.0454214884955996
466,5.606,0.0291690624088069
467,5.614,0.0370692820616505
468,5.621,0.0241908418056452
469,5.629,0.0243245280366764
470,5.636,0.036630027302548
471,5.644,0.0505970554398073
472,5.651,0.0396538825282536
473,5.659,0.0324157280195645
474,5.666,0.0354077531902628
475,5.674,0.0346692959140904
476,5.681,0.0340963549239567
477,5.689,0.0300857679930208
478,5.697,0.0254767760279453
479,5.704,0.0389854513730976
480,5.712,0.0366618573575554
481,5.719,0.0329886690096982
482,5.727,0.0424485613579058
483,5.734,0.0372602623916951
484,5.742,0.0484071476552963
485,5.749,0.0430533324030469
486,5.757,0.052716937103302
487,5.764,0.0451604820445386
488,5.772,0.0342491391879924
489,5.779,0.0511127023309277
490,5.787,0.0350639885961825
491,5.795,0.0457716191006813
492,5.802,0.0311425258192674
493,5.810,0.0258460046660314
494,5.817,0.0376549550737872
495,5.825,0.0431360905460662
496,5.832,0.0437917896792192
497,5.840,0.0391191376041288
498,5.847,0.0330650611417161
499,5.855,0.0287298076497044
500,5.862,0.0276666838124563
501,5.870,0.0332878715267681
502,5.877,0.0217972216690866
503,5.885,0.0387053468890323
504,5.892,0.0242226718606526
505,5.900,0.0431742866120751
506,5.908,0.0253048937309051
507,5.915,0.0109049768455448
508,5.923,0.0361525764774366
509,5.930,0.0277048798784652
510,5.938,0.0361462104664351
511,5.945,0.0307096370711664
512,5.953,0.0244836783117135
513,5.960,0.047210337587017
514,5.968,0.0368337396545955
515,5.975,0.0228667115173362
516,5.983,0.0217781236360821
517,5.990,0.0402713855953977
518,5.998,0.0210205683269054
519,6.006,0.0362862627084678
520,6.013,0.039265555857163
521,6.021,0.0266481220522186
522,6.028,0.0318364210184293
523,6.036,0.0370820140836535
524,6.043,0.0339881327369315
525,6.051,0.0265271678431904
526,6.058,0.0124455515079043
527,6.066,0.0337271262858706
528,6.073,0.0424421953469043
529,6.081,0.0438427177672311
530,6.088,0.0580070922455365
531,6.096,0.0518511596071
532,6.103,0.0257377824790062
533,6.111,0.0496421537895845
534,6.119,0.0491392389204671
535,6.126,0.0340263288029404
536,6.134,0.0282905528906019
537,6.141,0.0371138441386609
538,6.149,0.0355732694763014
539,6.156,0.0197028040495978
540,6.164,0.0296910753109287
541,6.171,0.0370820140836535
542,6.179,0.0322693097665304
543,6.186,0.0441928483723128
544,6.194,0.0152020342715475
545,6.201,0.0339881327369315
546,6.209,0.0437790576572163
547,6.216,0.0272019650093479
548,6.224,0.0121590810128374
549,6.232,0.0278194680764919
550,6.239,0.0466692266518907
551,6.247,0.0411053330365923
552,6.254,0.0376613210847886
553,6.262,0.0300348399050089
554,6.269,0.0357833478393504
555,6.277,0.0358979360373771
556,6.284,0.024044423552611
557,6.292,0.0395265623082239
558,6.299,0.0359870601913979
559,6.307,0.0354777793112791
560,6.314,0.0288061997817222
561,6.322,0.0314289963143343
562,6.330,0.0236688289035234
563,6.337,0.0344592175510414
564,6.345,0.0224529208022396
565,6.352,0.0398512288692997
566,6.360,0.0263743835791547
567,6.367,0.0359424981143875
568,6.375,0.0260751810620849
569,6.382,0.0383106542069402
570,6.390,0.0341982110999805
571,6.397,0.0441928483723128
572,6.405,0.030887885379208
573,6.412,0.0200529346546796
574,6.420,0.0343573613750176
575,6.427,0.0464782463218462
576,6.435,0.0357769818283489
577,6.443,0.0244072861796957
578,6.450,0.048992820667433
579,6.458,0.0238789072665724
580,6.465,0.0194099675435295
581,6.473,0.0467010567068982
582,6.480,0.0251521094668695
583,6.488,0.0280359124505425
584,6.495,0.0398830589243071
585,6.503,0.0343064332870057
586,6.510,0.0360252562574069
587,6.518,0.0223383326042129
588,6.525,0.0214980191520168
589,6.533,0.0314417283363372
590,6.541,0.0433334368871123
591,6.548,0.0409016206845448
592,6.556,0.0460389915627437
593,6.563,0.0356687596413237
594,6.571,0.0437535936132103
595,6.578,0.0365345371375257
596,6.586,0.035280432970233
597,6.593,0.0485726639413349
598,6.601,0.0358279099163608
599,6.608,0.057816111915492
600,6.616,0.0270555467563137
601,6.623,0.0195818498405696
602,6.631,0.0499859183836647
603,6.638,0.0299266177179837
604,6.646,0.0336507341538527
605,6.654,0.0275775596584355
606,6.661,0.0375021708097515
607,6.669,0.0453196323195758
608,6.676,0.0447148612744347
609,6.684,0.0325175841955883
610,6.691,0.0130375905310425
611,6.699,0.0436071753601762
612,6.706,0.0303595064660847
613,6.714,0.0432761427880989
614,6.721,0.0224210907472322
615,6.729,0.0398766929133056
616,6.736,0.0224083587252292
617,6.744,0.0308051272361887
618,6.752,0.0197600981486112
619,6.759,0.0217653916140792
620,6.767,0.0190662029494493
621,6.774,0.038807203065056
622,6.782,0.0285833893966702
623,6.789,0.0299075196849792
624,6.797,0.0220900581751549
625,6.804,0.0271574029323375
626,6.812,0.0225356789452589
627,6.819,0.016125105866763
628,6.827,0.0240380575416095
629,6.834,0.0162715241197971
630,6.842,0.0253176257529081
631,6.849,0.018525092014323
632,6.857,0.0293791407718559
633,6.865,0.0271319388883315
634,6.872,0.0260688150510834
635,6.880,0.022955835671357
636,6.887,0.0317027347873981
637,6.895,0.016965419318959
638,6.902,0.0320337673594754
639,6.910,0.0328422507566641
640,6.917,0.0420411366538107
641,6.925,0.0409907448385656
642,6.932,0.0276412197684504
643,6.940,0.0175956544081061
644,6.947,0.0261897692601116
645,6.955,0.0421620908628389
646,6.962,0.0237834171015501
647,6.970,0.0305313887631248
648,6.978,0.0224401887802366
649,6.985,0.0252539656428933
650,6.993,0.0173346479570452
651,7.000,0.0212943067999692
652,7.008,0.0217653916140792
653,7.015,0.0381133078658941
654,7.023,0.0320974274694903
655,7.030,0.0440909921962891
656,7.038,0.0431488225680692
657,7.045,0.0331669173177398
658,7.053,0.0319000811284442
659,7.060,0.0372475303696921
660,7.068,0.0406979083324973
661,7.076,0.036642759324551
662,7.083,0.0457843511226842
663,7.091,0.0217462935810747
664,7.098,0.0334852178678141
665,7.106,0.0313144081163075
666,7.113,0.0299329837289852
667,7.121,0.0343446293530147
668,7.128,0.0149728578754941
669,7.136,0.0109877349885641
670,7.143,0.0286661475396895
671,7.151,0.0208614180518682
672,7.158,0.0111914473406116
673,7.166,0.0355987335203073
674,7.173,0.029118134320795
675,7.181,0.0283860430556242
676,7.189,0.0274375074164028
677,7.196,0.0210014702939009
678,7.204,0.0354523152672732
679,7.211,0.0269473245692884
680,7.219,0.0215553132510301
681,7.226,0.0139479301042549
682,7.234,0.0466692266518907
683,7.241,0.0378268373708273
684,7.249,0.0407170063655017
685,7.256,0.0416146139167112
686,7.264,0.0438108877122237
687,7.271,0.0199001503906439
688,7.279,0.0273101871963731
689,7.287,0.023165914034406
690,7.294,0.0326640024486225
691,7.302,0.0279786183515291
692,7.309,0.0231213519573956
693,7.317,0.038807203065056
694,7.324,0.0186333142013483
695,7.332,0.0373493865457159
696,7.339,0.015011053941503
