#"+EI TIC Scan MEOH-EndBlank.d "
#Point,X(Minutes),Y(Counts)
0,2.095,0.225385729803042
1,2.102,0.201935571346877
2,2.110,0.181745300389103
3,2.117,0.194705982136737
4,2.125,0.163060098457804
5,2.133,0.164565167484278
6,2.140,0.175376689530352
7,2.148,0.163888215040056
8,2.155,0.155869943370628
9,2.163,0.142882972207685
10,2.170,0.152406312903588
11,2.178,0.153793079561169
12,2.185,0.14120044962787
13,2.193,0.137184741439328
14,2.200,0.13113817591812
15,2.208,0.127451085420948
16,2.215,0.101194531880484
17,2.223,0.113412537645621
18,2.230,0.0987430439028635
19,2.238,0.114819021364685
20,2.246,0.107260814463174
21,2.253,0.100064087022171
22,2.261,0.104145518748987
23,2.268,0.108930192335334
24,2.276,0.0953911434508893
25,2.283,0.0899229450664922
26,2.291,0.103698598688723
27,2.298,0.0988810633332389
28,2.306,0.096436147709446
29,2.313,0.0773434598408478
30,2.321,0.115009619625679
31,2.328,0.0874846017965266
32,2.336,0.0870376817362634
33,2.344,0.0895811826674674
34,2.351,0.0826013429027681
35,2.359,0.0757463778607895
36,2.366,0.0834886106694672
37,2.374,0.0683261903896545
38,2.381,0.0818915286894089
39,2.389,0.133300480327335
40,2.396,0.309715601762416
41,2.404,0.367164546567723
42,2.411,0.236065804772567
43,2.419,0.132051733100129
44,2.426,0.105236529484335
45,2.434,0.104000926964784
46,2.441,0.107983773384188
47,2.449,0.113110209369561
48,2.457,0.0987233268413813
49,2.464,0.102863909752644
50,2.472,0.09336685847205
51,2.479,0.0856574874325093
52,2.487,0.103876052242063
53,2.494,0.0948850722061795
54,2.502,0.109265382380532
55,2.509,0.0743333217878984
56,2.517,0.0836266300998426
57,2.524,0.100550441205399
58,2.532,0.0937809167631762
59,2.539,0.0892459926222699
60,2.547,0.0863607292920412
61,2.554,0.0960418064798019
62,2.562,0.0987627609643457
63,2.570,0.0852302844337283
64,2.577,0.0909153704944296
65,2.585,0.0980332296895043
66,2.592,0.0752665960313893
67,2.600,0.076837388596138
68,2.607,0.0919538023991589
69,2.615,0.0840472607447962
70,2.622,0.0816746410131047
71,2.630,0.100714750051084
72,2.637,0.0919209406300219
73,2.645,0.0751548660163235
74,2.652,0.0772908810102286
75,2.660,0.0739521252659092
76,2.668,0.0713954796270505
77,2.675,0.0637846938949208
78,2.683,0.0696866676319264
79,2.690,0.080498189678
80,2.698,0.0961141023719033
81,2.705,0.0866893469834112
82,2.713,0.0747473800790247
83,2.720,0.0669262790244182
84,2.728,0.0959695105877005
85,2.735,0.136842979040304
86,2.743,0.0977046119981342
87,2.750,0.0988284845026197
88,2.758,0.0809779715074002
89,2.765,0.0939846597318256
90,2.773,0.106629868495744
91,2.781,0.0950296639903823
92,2.788,0.0732883175293418
93,2.796,0.0991899639631267
94,2.803,0.124526387967755
95,2.811,0.0752140172007701
96,2.818,0.0807873732464056
97,2.826,0.0664004907182262
98,2.833,0.0659009918273437
99,2.841,0.0715795055342177
100,2.848,0.059552098030075
101,2.856,0.0883390077940887
102,2.863,0.0805113343856548
103,2.871,0.0897126297440154
104,2.879,0.0736103628668844
105,2.886,0.0698181147084744
106,2.894,0.0717898208566945
107,2.901,0.0654277823517709
108,2.909,0.0666699572251496
109,2.916,0.0900412474353854
110,2.924,0.0716452290724917
111,2.931,0.0765284879662502
112,2.939,0.0931302537342636
113,2.946,0.0905144569109582
114,2.954,2.07470807740314
115,2.961,22.8409144010722
116,2.969,75.1012487537996
117,2.976,100
118,2.984,6.93604159879342
119,2.992,0.213890682958918
120,2.999,0.161009524063655
121,3.007,0.113543984722169
122,3.014,0.120221496210808
123,3.022,0.10360658573514
124,3.029,0.111269950297889
125,3.037,0.127608821912806
126,3.044,0.106721881449328
127,3.052,0.103560579258348
128,3.059,0.100839624773804
129,3.067,0.109285099442014
130,3.074,0.109607144779556
131,3.082,0.109390257103252
132,3.090,0.0996105946080803
133,3.097,0.0898572215282182
134,3.105,0.0826144876104229
135,3.112,0.0892985714528891
136,3.120,0.0938860744244146
137,3.127,0.10850956169038
138,3.135,0.0709354148591324
139,3.142,0.06762952088395
140,3.150,0.073768099358742
141,3.157,0.101871484324706
142,3.165,0.0848359432040843
143,3.172,0.0747670971405069
144,3.180,0.0992491151475733
145,3.187,0.0779481163929687
146,3.195,0.0510080380544544
147,3.203,0.0689965704800493
148,3.210,0.0826473493795599
149,3.218,0.0673731990846814
150,3.225,0.079643783680438
151,3.233,0.0595060915532832
152,3.240,0.0598675710137902
153,3.248,0.229769489805918
154,3.255,1.47301565685846
155,3.263,3.04583250658599
156,3.270,1.47000551880551
157,3.278,0.233706329748531
158,3.285,0.0678069744372898
159,3.293,0.0650268687682995
160,3.300,0.0851054097110077
161,3.308,0.089640333851914
162,3.316,0.103560579258348
163,3.323,0.0616355341933609
164,3.331,0.0503639473793692
165,3.338,0.073143725745139
166,3.346,0.0547411350284179
167,3.353,0.0495818372739086
168,3.361,0.0482805112160833
169,3.368,0.0400387795165232
170,3.376,0.0451783602095503
171,3.383,0.0498315867193498
172,3.391,0.054300787321982
173,3.398,0.0317707584016535
174,3.406,0.0542547808451902
175,3.414,0.0481359194318805
176,3.421,0.057698694250748
177,3.429,0.0365422872803462
178,3.436,0.0575672471742
179,3.444,0.0446722889648405
180,3.451,0.0575278130512356
181,3.459,0.0386848746280787
182,3.466,0.0384614145979471
183,3.474,0.0474852564029678
184,3.481,0.0764299026588392
185,3.489,0.0976783225828246
186,3.496,0.0645602316465541
187,3.504,0.0468543104355374
188,3.511,0.0350437906076989
189,3.519,0.0488917401220315
190,3.527,0.0423719651252503
191,3.534,0.0358259007131595
192,3.542,0.0490757660291987
193,3.549,0.056778564714912
194,3.557,0.056778564714912
195,3.564,0.0477678676175461
196,3.572,0.0516718457910219
197,3.579,0.0553917980573305
198,3.587,0.0520990487898029
199,3.594,0.0512643598537231
200,3.602,0.0681553091901421
201,3.609,0.046124779160696
202,3.617,0.0596704003989682
203,3.625,0.0464402521444112
204,3.632,0.0453492414090627
205,3.640,0.0456910038080875
206,3.647,0.0449680448870735
207,3.655,0.0298516310840526
208,3.662,0.0292601192395865
209,3.670,0.0485368330153519
210,3.677,0.0343865552249589
211,3.685,0.043647001767766
212,3.692,0.0273409919219856
213,3.700,0.040019062455041
214,3.707,0.0355958683292005
215,3.715,0.0486682800918999
216,3.722,0.039756168301945
217,3.730,0.0287014691642575
218,3.738,0.0349714947155975
219,3.745,0.0377121662616235
220,3.753,0.0478467358634749
221,3.760,0.0375018509391466
222,3.768,0.0548462926896563
223,3.775,0.029923926976154
224,3.783,0.0371206544171574
225,3.790,0.0352738229916579
226,3.798,0.0472552240190088
227,3.805,0.00903698651267554
228,3.813,0.0441530730124758
229,3.820,0.0350175011923893
230,3.828,0.0455727014391943
231,3.836,0.0477152887869269
232,3.843,0.0396641553483614
233,3.851,0.0309032076964366
234,3.858,0.0397824577172546
235,3.866,0.0264142900323222
236,3.873,0.04272687223193
237,3.881,0.0525196794347565
238,3.888,0.0361413736968748
239,3.896,0.0277287607978023
240,3.903,0.0258359228955109
241,3.911,0.02952958574651
242,3.918,0.0382182375063333
243,3.926,0.0300093675759102
244,3.933,0.0385074210747389
245,3.941,0.0481753535548449
246,3.949,0.0289643633173535
247,3.956,0.0448563148720077
248,3.964,0.0743004600187614
249,3.971,0.0901792668657608
250,3.979,0.0538538672617188
251,3.986,0.0374887062314918
252,3.994,0.0295164410388552
253,4.001,0.0314027065873191
254,4.009,0.0278864972896599
255,4.016,0.0169501005208656
256,4.024,0.0461379238683508
257,4.031,0.0501273426415828
258,4.039,0.0329734991520678
259,4.047,0.0291023827477289
260,4.054,0.0248697868828831
261,4.062,0.0372915356166698
262,4.069,0.0218727935375885
263,4.077,0.0495621202124264
264,4.084,0.229730055682953
265,4.092,1.12612682184827
266,4.099,1.66218771707252
267,4.107,0.683143601527652
268,4.114,0.104000926964784
269,4.122,0.0224577330282271
270,4.129,0.0418856109420227
271,4.137,0.0445999930727391
272,4.144,0.037574146831248
273,4.152,0.019960238573815
274,4.160,0.0383628292905361
275,4.167,0.0398941877323204
276,4.175,0.0283268449960957
277,4.182,0.0462759432987262
278,4.190,0.0287080415180849
279,4.197,0.00415372761891705
280,4.205,0.0388623281814185
281,4.212,0.0203480074496316
282,4.220,0.0354118424220333
283,4.227,0.0377713174460701
284,4.235,0.0235750331788852
285,4.242,0.0389214793658651
286,4.250,0.0130264052859076
287,4.257,0.0283071279346135
288,4.265,0.037672732138659
289,4.273,0.0112650144601643
290,4.280,0.0270058018767882
291,4.288,0.0200982580041904
292,4.295,0.0280573784891723
293,4.303,0.0264142900323222
294,4.310,0.0238444996858086
295,4.318,0.0249683721902941
296,4.325,0.0383036781060895
297,4.333,0.0283334173499231
298,4.340,0.0204334480493878
299,4.348,0.0356944536366115
300,4.355,0.0490166148447521
301,4.363,0.0327040326451444
302,4.371,0.0401767989468986
303,4.378,0.0297004669460224
304,4.386,0.0166214828294956
305,4.393,0.0321848166927797
306,4.401,0.0410312049444607
307,4.408,0.0499958955650348
308,4.416,0.128916720324459
309,4.423,0.142133723871361
310,4.431,0.0548725821049659
311,4.438,0.0556218304412895
312,4.446,0.0552143445039907
313,4.453,0.0312909765722533
314,4.461,0.0336110174733256
315,4.468,0.0230886789956576
316,4.476,0.0461050620992138
317,4.484,0.0432789499534316
318,4.491,0.033814760441975
319,4.499,0.0308834906349544
320,4.506,0.0218267870607967
321,4.514,0.023325283733444
322,4.521,0.0297070392998498
323,4.529,0.0439296129823442
324,4.536,0.023489592579129
325,4.544,0.026624605354799
326,4.551,0.019368726729349
327,4.559,0.0165820487065312
328,4.566,0.0279456484741065
329,4.574,0.0223131412440243
330,4.582,0.0179688153641127
331,4.589,0.013230148254557
332,4.597,0.0211564069704019
333,4.604,0.0219056553067255
334,4.612,0.0208672234019962
335,4.619,0.0295361581003374
336,4.627,0.0105157661238406
337,4.634,0.0124874722720607
338,4.642,0.0295887369309566
339,4.649,0.0314224236488013
340,4.657,0.0197564956051656
341,4.664,0.0167003510754244
342,4.672,0.0346231599627453
343,4.679,0.0209329469402703
344,4.687,0.0357536048210581
345,4.695,0.0276367478442187
346,4.702,0.0283137002884409
347,4.710,0.0138085153913682
348,4.717,0.0235355990559208
349,4.725,0.0159773921544104
350,4.732,0.0285568773800547
351,4.740,0.029431000439099
352,4.747,0.0125992022871266
353,4.755,0.0242388409154526
354,4.762,0.0330852291671336
355,4.770,0.0107326538001448
356,4.777,0.00518558716981891
357,4.785,0.00659864324270999
358,4.793,0.0162731480766434
359,4.800,0.0164374569223284
360,4.808,0.0386651575665965
361,4.815,0.0367394578951682
362,4.823,0.0146694937427577
363,4.830,0.076443047366494
364,4.838,0.258030611263739
365,4.845,0.255316229133023
366,4.853,0.0881944160098859
367,4.860,0.0305680176512392
368,4.868,0.0317313242786891
369,4.875,0.0189020896076035
370,4.883,0.033190386828372
371,4.890,0.0289840803788357
372,4.898,0.0374361274008726
373,4.906,0.0251589704512887
374,4.913,0.026887499507895
375,4.921,0.0261185341100892
376,4.928,0.029595309284784
377,4.936,0.0162862927842982
378,4.943,0.0216493335074569
379,4.951,0.0173378693966822
380,4.958,0.0255796010962423
381,4.966,0.0329012032599664
382,4.973,0.0237064802554332
383,4.981,0.0182382818710361
384,4.988,0.00781452870077907
385,4.996,0.0187377807619185
386,5.003,0.0232792772566522
387,5.011,0.0232464154875152
388,5.019,0.0203611521572864
389,5.026,0.0202165603730836
390,5.034,0.000479781829400229
391,5.041,0.00824830405338749
392,5.049,0.020584612187418
393,5.056,0.013920245406434
394,5.064,0.0241928344386608
395,5.071,0.00654606441209079
396,5.079,0.0102200102016076
397,5.086,0.0151821373412949
398,5.094,0.0149586773111633
399,5.101,0.0284582920726437
400,5.109,0.0367591749566504
401,5.117,0.023226698426033
402,5.124,0.0131578523624556
403,5.132,0.0340842269488984
404,5.139,0.0230229554573836
405,5.147,0.0084454746682095
406,5.154,0.0126320640562636
407,5.162,0.0350963694383181
408,5.169,0.0186852019312993
409,5.177,0.0144526060664535
410,5.184,0.0206043292489002
411,5.192,0.00532360660019432
412,5.199,0.0315472983715219
413,5.207,0.016825225798145
414,5.214,0.0334729980429502
415,5.222,0.0183302948246197
416,5.230,0.0140976989597738
417,5.237,0.0445408418882925
418,5.245,0.0231872643030686
419,5.252,0.0354447041911703
420,5.260,0.00985195838727319
421,5.267,0.00924072948132495
422,5.275,0.00922758477367015
423,5.282,0.020551750418281
424,5.290,0.0253890028352477
425,5.297,0.0246463268527515
426,5.305,0.020321718034322
427,5.312,0.0182514265786909
428,5.320,0.0339527798723504
429,5.328,0.0125203340411977
430,5.335,0.0280113720123805
431,5.343,0.0279456484741065
432,5.350,0.033058939751824
433,5.358,0.00111072779683067
434,5.365,0.0144854678355905
435,5.373,0.00658549853505519
436,5.380,0.0228192124887342
437,5.388,0.0341236610718628
438,5.395,0.0333021168434378
439,5.403,0.0153004397101881
440,5.410,0.0349254882388057
441,5.418,0.0344325617017507
442,5.425,0.0203808692187686
443,5.433,0.0192635690681105
444,5.441,0.0161614180615776
445,5.448,0.0167463575522162
446,5.456,0.0111072779683067
447,5.463,0.0227797783657698
448,5.471,0.0274592942908788
449,5.478,0.0083928958375903
450,5.486,0.0394867017950216
451,5.493,0.0278667802281777
452,5.501,0.0719475573485521
453,5.508,0.0843167272517196
454,5.516,0.0448628872258351
455,5.523,0.00773566045485026
456,5.531,0.0219648064911721
457,5.539,0.0155370444479745
458,5.546,0.0126780705330554
459,5.554,0.0400059177473862
460,5.561,0.0296215987000936
461,5.569,0.0179753877179401
462,5.576,0.0274592942908788
463,5.584,0.0171012646588958
464,5.591,0.0120668416271071
465,5.599,0.0244491562379295
466,5.606,0.0254152922505573
467,5.614,0.016693778721597
468,5.621,0.0339922139953148
469,5.629,0.0310872336036039
470,5.636,0.0113373103522657
471,5.644,0.0349846394232523
472,5.652,0.0205648951259358
473,5.659,0.0113307379984383
474,5.667,0.0325857302762511
475,5.674,0.0376267256618672
476,5.682,0.0145709084353467
477,5.689,0.0210183875400265
478,5.697,0.0170355411206218
479,5.704,0.0335255768735694
480,5.712,0.0164703186914654
481,5.719,0.0405974295918522
482,5.727,0.0338016157343202
483,5.734,0.0326448814606978
484,5.742,0.0228717913193534
485,5.750,0.0302985511443158
486,5.757,0.0240548150082854
487,5.765,0.0204728821723522
488,5.772,0.0312778318645985
489,5.780,0.0150901243877113
490,5.787,0.0456121355621587
491,5.795,0.0274198601679144
492,5.802,0.0368774773255436
493,5.810,0.0264997306320784
494,5.817,0.0195067461597244
495,5.825,0.0340185034106244
496,5.832,0.00426545763398286
497,5.840,0.017088119951241
498,5.847,0.0276630372595283
499,5.855,0.0263157047249112
500,5.863,0.0178505129952195
501,5.870,0.0410114878829785
502,5.878,0.0116002045053617
503,5.885,0.0145577637276919
504,5.893,0.0132498653160392
505,5.900,0.013887383637297
506,5.908,0.0224774500897093
507,5.915,0.0220699641524105
508,5.923,0.0218333594146241
509,5.930,0.0191978455298365
510,5.938,0.0266048882933168
511,5.945,0.0272884130913664
512,5.953,0.0403345354387562
513,5.960,0.0246594715604063
514,5.968,0.0120011180888331
515,5.976,0.0179688153641127
516,5.983,0.030778332973716
517,5.991,0.0390332093809309
518,5.998,0.026854637738758
519,6.006,0.0148272302346153
520,6.013,0.0364371296191078
521,6.021,0.0281231020274463
522,6.028,0.0387966046431445
523,6.036,0.0290432315632823
524,6.043,0.0123757422569949
525,6.051,0.0317378966325165
526,6.058,0.0195921867594806
527,6.066,0.0330720844594788
528,6.074,0.0344128446402685
529,6.081,0.0621021713151063
530,6.089,0.0715072096421163
531,6.096,0.0415701379583075
532,6.104,0.0215441758462185
533,6.111,0.0289512186096987
534,6.119,0.0109955479532409
535,6.126,0.0274724389985336
536,6.134,0.0189809578535323
537,6.141,0.0248303527599187
538,6.149,0.0203742968649412
539,6.156,0.0214981693694267
540,6.164,0.0316984625095521
541,6.171,0.0256584693421711
542,6.179,0.012605774640954
543,6.187,0.0269729401076512
544,6.194,0.0207226316177934
545,6.202,0.00369366285099902
546,6.209,0.00898440768205634
547,6.217,0.0321979614004345
548,6.224,0.0372981079704972
549,6.232,0.0405908572380248
550,6.239,0.0279456484741065
551,6.247,0.0171275540742054
552,6.254,0.0223985818437805
553,6.262,0.0333744127355392
554,6.269,0.0361545184045296
555,6.277,0.0325528685071141
556,6.285,0.0478073017405105
557,6.292,0.0286883244566027
558,6.300,0.0289380739020439
559,6.307,0.0335650109965338
560,6.315,0.0348071858699125
561,6.322,0.0297727628381238
562,6.330,0.0224117265514353
563,6.337,0.0245214521300309
564,6.345,0.03051543882062
565,6.352,0.0163848780917092
566,6.360,0.033781898672838
567,6.367,0.00227403442428054
568,6.375,0.0150638349724017
569,6.382,0.0229046530884904
570,6.390,0.023226698426033
571,6.398,0.0288329162408055
572,6.405,0.0313698448181821
573,6.413,0.0189152343152583
574,6.420,0.0267034736007278
575,6.428,0.00540247484612312
576,6.435,0.0239890914700114
577,6.443,0.00317444689863439
578,6.450,0.0234172966870276
579,6.458,0.0290300868556275
580,6.465,0.0303379852672802
581,6.473,0.0204991715876618
582,6.480,0.0200391068197438
583,6.488,0.0280113720123805
584,6.496,0.0311003783112587
585,6.503,0.0229835213344192
586,6.511,0.0349780670694249
587,6.518,0.0201508368348096
588,6.526,0.0203677245111138
589,6.533,0.0269597953999964
590,6.541,0.02325956019517
591,6.548,0.0206306186642098
592,6.556,0.0444291118732267
593,6.563,0.0163520163225722
594,6.571,0.0279325037664517
595,6.578,0.0127569387789842
596,6.586,0.0385205657823937
597,6.593,0.0407880278528468
598,6.601,0.0410969284827347
599,6.609,0.0299370716838088
600,6.616,0.0182514265786909
601,6.624,0.0174693164732302
602,6.631,0.0173181523352
603,6.639,0.020518888649144
604,6.646,0.0160825498156488
605,6.654,0.0328420520755198
606,6.661,0.0128620964402226
607,6.669,0.0149915390803003
608,6.676,0.0114030338905397
609,6.684,0.0237064802554332
610,6.691,0
611,6.699,0.0168843769825916
612,6.706,0.0032927492675276
613,6.714,0.00849805349882871
614,6.722,0.0327040326451444
615,6.729,0.0181528412712799
616,6.737,0.0162862927842982
617,6.744,0.019861653266404
618,6.752,0.0170749752435862
619,6.759,0.0266377500624538
620,6.767,0.0196184761747902
621,6.774,0.0154055973714265
622,6.782,0.0135784830074092
623,6.789,0.0174298823502658
624,6.797,0.0287211862257397
625,6.804,0.0394735570873668
626,6.812,0.0083271722993163
627,6.820,0.00791311400819007
628,6.827,0.012934392332324
629,6.835,0.0223197135978517
630,6.842,0.0203414350958042
631,6.850,0.0066577944271566
632,6.857,0.0293258427778606
633,6.865,0.0405054166382686
634,6.872,0.0236473290709866
635,6.880,0.0114161785981945
636,6.887,0.0145051848970727
637,6.895,0.006631505011847
638,6.902,0.0262828429557742
639,6.910,0.0308046223890256
640,6.917,0.0246266097912693
641,6.925,0.0288329162408055
642,6.933,0.0366277278801024
643,6.940,0.0213470052313965
644,6.948,0.0327697561834184
645,6.955,0.022963804272937
646,6.963,0.0269992295229608
647,6.970,0.0386125787359773
648,6.978,0.0305943070665488
649,6.985,0.0151295585106757
650,6.993,0.0104171808164296
651,7.000,0.0123100187187209
652,7.008,0.0295098686850278
653,7.015,0.0337293198422188
654,7.023,0.0373966932779082
655,7.031,0.0277944843360763
656,7.038,0.0309229247579188
657,7.046,0.0326317367530429
658,7.053,0.0118959604275947
659,7.061,0.0264471518014592
660,7.068,0.0354709936064799
661,7.076,0.0501536320568924
662,7.083,0.040084785993315
663,7.091,0.0369892073406094
664,7.098,0.0140056860061902
665,7.106,0.033190386828372
666,7.113,0.0138742389296422
667,7.121,0.0216230440921473
668,7.128,0.0257044758189629
669,7.136,0.0251721151589435
670,7.144,0.0151821373412949
671,7.151,0.0198353638510944
672,7.159,0.0255335946194505
673,7.166,0.0205123162953166
674,7.174,0.0314618577717657
675,7.181,0.0120668416271071
676,7.189,0.0185866166238883
677,7.196,0.0233187113796166
678,7.204,0.0342616805022382
679,7.211,0.0154253144329087
680,7.219,0.0305417282359296
681,7.226,0.0350963694383181
682,7.234,0.0399599112705944
683,7.242,0.0386125787359773
684,7.249,0.0413006714513841
685,7.257,0.0238905061626004
686,7.264,0.0671891731775142
687,7.272,0.0343931275787863
688,7.279,0.0201508368348096
689,7.287,0.017416737642611
690,7.294,0.0337556092575284
691,7.302,0.0310740888959491
692,7.309,0.0348071858699125
693,7.317,0.0243900050534829
694,7.324,0.0421813668642557
695,7.332,0.0252312663433901
696,7.339,0.0198419362049218
