#"+EI TIC Scan TCM-Blank.d "
#Point,X(Minutes),Y(Counts)
0,2.095,0.103558636092651
1,2.102,0.100053198932896
2,2.110,0.0910925341931851
3,2.117,0.0997148632070292
4,2.125,0.0978836646907395
5,2.132,0.101200750003104
6,2.140,0.0912355420773144
7,2.147,0.0825713570973836
8,2.155,0.0716295099629058
9,2.162,0.0703668549859594
10,2.170,0.0902065829110183
11,2.178,0.0807052786093551
12,2.185,0.0740641319902777
13,2.193,0.0718178618102956
14,2.200,0.0746780194928815
15,2.208,0.0639628921747062
16,2.215,0.0666905059646845
17,2.223,0.0658150186740393
18,2.230,0.0627525571553681
19,2.238,0.0581484008858397
20,2.245,0.0561393145136818
21,2.253,0.0589366882471377
22,2.260,0.0736944042898459
23,2.268,0.0560276986041175
24,2.275,0.0542034760821755
25,2.283,0.0525292374387107
26,2.291,0.0422570857616188
27,2.298,0.0628711490592802
28,2.306,0.0550684993812991
29,2.313,0.0501015914056866
30,2.321,0.0491842481489548
31,2.328,0.0931155725540385
32,2.336,0.169195766910822
33,2.343,0.106387401800672
34,2.351,0.0790101119828469
35,2.358,0.0726131251659415
36,2.366,0.0674160093768526
37,2.373,0.0584867366117065
38,2.381,0.0519572059021935
39,2.389,0.0852117709580147
40,2.396,0.319151741410493
41,2.404,0.378873229021755
42,2.411,0.111507781651935
43,2.419,0.0534989006530507
44,2.426,0.0460938826528925
45,2.434,0.037757569407307
46,2.441,0.0490830962309121
47,2.449,0.0520723098089317
48,2.456,0.0560869945560735
49,2.464,0.061904973842114
50,2.471,0.0533454287773998
51,2.479,0.0632443647568859
52,2.486,0.0554800830478175
53,2.494,0.0541999880850017
54,2.502,0.0435336927272608
55,2.509,0.050757334874377
56,2.517,0.0620131017545044
57,2.524,0.053519828636094
58,2.532,0.0590971361171364
59,2.539,0.0504922470891617
60,2.547,0.0484587447367867
61,2.554,0.0440813082835608
62,2.562,0.0475100095054899
63,2.569,0.164089339048254
64,2.577,0.241188028579812
65,2.584,0.0939980358390314
66,2.592,0.0557102908612939
67,2.600,0.0580228329875798
68,2.607,0.0580577129593186
69,2.615,0.0673043934672882
70,2.622,0.0558812027228143
71,2.630,0.0469484419604944
72,2.637,0.0456334670259397
73,2.645,0.0518176860152381
74,2.652,0.0499655595159051
75,2.660,0.0437918045181283
76,2.667,0.051971157890889
77,2.675,0.0324872056775665
78,2.682,0.045926458788546
79,2.690,0.0441580442213863
80,2.697,0.0471856257683186
81,2.705,0.0573322095471505
82,2.713,0.0474542015507077
83,2.720,0.0528117652097954
84,2.728,0.0815982058858697
85,2.735,0.0954350906746721
86,2.743,0.0696064716020525
87,2.750,0.0655150509170851
88,2.758,0.0593447839164823
89,2.765,0.08389679602346
90,2.773,0.0803390389060971
91,2.780,0.0552498752343411
92,2.788,0.0517758300491515
93,2.795,0.0680612888540213
94,2.803,0.0719713336859466
95,2.810,0.0608620626871223
96,2.818,0.0495923438182993
97,2.826,0.0485633846520032
98,2.833,0.0470461058813632
99,2.841,0.051273558456112
100,2.848,0.0540255882263074
101,2.856,0.0624142214295012
102,2.863,0.0679147929727181
103,2.871,0.0459404107772416
104,2.878,0.0596063837045237
105,2.886,0.0825504291143403
106,2.893,0.0582076968377957
107,2.901,0.0725608052083332
108,2.908,0.0629792769716706
109,2.916,0.0536907404976144
110,2.924,0.0552289472512978
111,2.931,0.0531849809074011
112,2.939,0.0575484653719314
113,2.946,0.0597319516027835
114,2.954,0.265223817105054
115,2.961,5.81882686935372
116,2.969,30.8066188792451
117,2.976,69.0469968553613
118,2.984,100
119,2.991,22.0235245876594
120,2.999,0.178107599690098
121,3.006,0.112076325191278
122,3.014,0.113115748349096
123,3.021,0.0981975844363892
124,3.029,0.0703319750142206
125,3.037,0.0962338420274918
126,3.044,0.0922052052916545
127,3.052,0.0779392968504641
128,3.059,0.0766766418735177
129,3.067,0.0694460237320537
130,3.074,0.0654522669679552
131,3.082,0.0613608462829879
132,3.089,0.0712807102455173
133,3.097,0.0522048537015393
134,3.104,0.0478378812398351
135,3.112,0.0515630622215445
136,3.119,0.0589645922245288
137,3.127,0.100265966760503
138,3.135,0.0835166043315065
139,3.142,0.0561393145136818
140,3.150,0.0387132806329515
141,3.157,0.0619572937997223
142,3.165,0.0780299847769851
143,3.172,0.0485215286859166
144,3.180,0.059686607639523
145,3.187,0.0568857459088932
146,3.195,0.0427733093433538
147,3.202,0.0450649234865964
148,3.210,0.0402933433527215
149,3.217,0.0483959607876567
150,3.225,0.0458497228507206
151,3.232,0.0429128292303092
152,3.240,0.0414129904455386
153,3.248,0.0512770464532859
154,3.255,0.16975035846147
155,3.263,0.397108478246827
156,3.270,0.229245126256429
157,3.278,0.060537678949951
158,3.285,0.0338579885669033
159,3.293,0.0307466950877978
160,3.300,0.0349880996512421
161,3.308,0.0537674764354399
162,3.315,0.0652220591544788
163,3.323,0.0471019138361453
164,3.330,0.0356473311171064
165,3.338,0.0298816717886742
166,3.346,0.0334359409088632
167,3.353,0.0272273059393476
168,3.361,0.0201327196876652
169,3.368,0.0297037839328061
170,3.376,0.0250647476915388
171,3.383,0.0206035993061397
172,3.391,0.0306315911810596
173,3.398,0.0295189200825902
174,3.406,0.0328325173977811
175,3.413,0.0184236010724615
176,3.421,0.0288806165997692
177,3.428,0.0326685815306085
178,3.436,0.0139171087238018
179,3.443,0.0348171877897218
180,3.451,0.0301049036078029
181,3.459,0.041855966086622
182,3.466,0.0272307939365215
183,3.474,0.0303002314495405
184,3.481,0.0499341675413401
185,3.489,0.114256323424957
186,3.496,0.0711307263670403
187,3.504,0.0379110412829579
188,3.511,0.0383505289268674
189,3.519,0.0209768150037454
190,3.526,0.0234114370311173
191,3.534,0.0334498928975588
192,3.541,0.0159959550394374
193,3.549,0.0255635312874044
194,3.556,0.0203978074728805
195,3.564,0.0265018025271795
196,3.572,0.0236486208389415
197,3.579,0.029829351831066
198,3.587,0.0282388251197743
199,3.594,0.0266552744028305
200,3.602,0.0263378666600069
201,3.609,0.0172655860107316
202,3.617,0.0165505465900851
203,3.624,0.0278063134702126
204,3.632,0.0186538088859379
205,3.639,0.0213011987409167
206,3.647,0.025636779228056
207,3.654,0.0275656416652145
208,3.662,0.0269517541626107
209,3.670,0.0203280475294028
210,3.677,0.0314721984999659
211,3.685,0.0138229328001069
212,3.692,0.0276074976313011
213,3.700,0.026397162611963
214,3.707,0.0278098014673865
215,3.715,0.021688366427218
216,3.722,0.0279702493373852
217,3.730,0.0319919100788748
218,3.737,0.0239764925732867
219,3.745,0.0203838554841849
220,3.752,0.0270424420891317
221,3.760,0.027307529874347
222,3.767,0.022630125664167
223,3.775,0.0301223435936723
224,3.783,0.0240950844771988
225,3.790,0.0208756630857027
226,3.798,0.0224068938450383
227,3.805,0.0199408798431015
228,3.813,0.0248868598356707
229,3.820,0.0211616788539613
230,3.828,0.0222743499524307
231,3.835,0.0238997566354612
232,3.843,0.017160946095515
233,3.850,0.0265227305102228
234,3.858,0.0261878827815299
235,3.865,0.0255391153071872
236,3.873,0.0415315823494507
237,3.881,0.0531396369441406
238,3.888,0.022113902082432
239,3.896,0.0276493535973877
240,3.903,0.0234428290056822
241,3.911,0.0233660930678568
242,3.918,0.021656974452653
243,3.926,0.02660993043957
244,3.933,0.0356926750803669
245,3.941,0.0219360142265638
246,3.948,0.0199443678402754
247,3.956,0.022263885960909
248,3.963,0.0419606060018386
249,3.971,0.0811970862108729
250,3.978,0.0594040798684383
251,3.986,0.0347090598773313
252,3.994,0.0237323327711147
253,4.001,0.0419047980470564
254,4.009,0.0365856023568815
255,4.016,0.022235981983518
256,4.024,0.0228812614606867
257,4.031,0.0140008206559751
258,4.039,0.0379319692660012
259,4.046,0.0460834186613709
260,4.054,0.0240671804998077
261,4.061,0.0210116949754843
262,4.069,0.0253961074230579
263,4.076,0.0255426033043611
264,4.084,0.045957850763111
265,4.092,0.120381246462299
266,4.099,0.154608962729634
267,4.107,0.0780613767515501
268,4.114,0.0242973883132841
269,4.122,0.0303699913930182
270,4.129,0.0242764603302408
271,4.137,0.0347927718095046
272,4.144,0.0319081981467015
273,4.152,0.0231044932798154
274,4.159,0.0301955915343239
275,4.167,0.0374994576164395
276,4.174,0.0229963653674249
277,4.182,0.0386191047092566
278,4.189,0.0260413869002267
279,4.197,0.0185631209594169
280,4.205,0.0224836297828638
281,4.212,0.0286504087862928
282,4.220,0.0202792155689684
283,4.227,0.0193862882924538
284,4.235,0.0123230940153363
285,4.242,0.0102651756827441
286,4.250,0.0168505143470393
287,4.257,0.0256995631771859
288,4.265,0.0140601166079311
289,4.272,0.0177922735839883
290,4.280,0.0103523756120912
291,4.287,0.0202827035661423
292,4.295,0.013425301122284
293,4.303,0.0154064835170508
294,4.310,0.0138229328001069
295,4.318,0.0252391475502331
296,4.325,0.0127939736338108
297,4.333,0.0153785795396597
298,4.340,0.0183573291261576
299,4.348,0.0194316322557143
300,4.355,0.00960594421687976
301,4.363,0.0168086583809526
302,4.370,0.0146565641246655
303,4.378,0.0226196616726453
304,4.385,0.0138403727859764
305,4.393,0.0200838877272308
306,4.400,0.0198606559081022
307,4.408,0.0265680744734833
308,4.416,0.0979394726455217
309,4.423,0.118888383671876
310,4.431,0.0436941405972595
311,4.438,0.0198257759363633
312,4.446,0.0334010609371244
313,4.453,0.0260134829228356
314,4.461,0.012546325834465
315,4.468,0.0139275727153235
316,4.476,0.0324244217284365
317,4.483,0.0212279508002651
318,4.491,0.0156157633474839
319,4.498,0.024726411965672
320,4.506,0.0156959872824833
321,4.513,0.0168679543329087
322,4.521,0.0221801740287358
323,4.529,0.0209872789952671
324,4.536,0.0134776210798923
325,4.544,0.0193688483065843
326,4.551,0.0113150628320835
327,4.559,0.0121870621255548
328,4.566,0.0248938358300185
329,4.574,0.0216116304893925
330,4.581,0.0293445202238959
331,4.589,0.0146740041105349
332,4.596,0.0187933287728933
333,4.604,0.0231533252402498
334,4.611,0.02028967956049
335,4.619,0.0195397601681047
336,4.627,0.0200350557667964
337,4.634,0.0153157955905298
338,4.642,0.0263274026684853
339,4.649,0.0269552421597846
340,4.657,0.0242311163669803
341,4.664,0.0170528181831246
342,4.672,0.0287097047382488
343,4.679,0.0257658351234898
344,4.687,0.0222080780061269
345,4.694,0.0172865139937749
346,4.702,0.0217127824074352
347,4.709,0.0223057419269957
348,4.717,0.0134462291053273
349,4.724,0.0156994752796571
350,4.732,0.0201187676989697
351,4.740,0.0121312541707726
352,4.747,0.023146349245902
353,4.755,0.026972682145654
354,4.762,0.0138159568057592
355,4.770,0.0222743499524307
356,4.777,0.0241927483980675
357,4.785,0.0340986603719014
358,4.792,0.0192397924111506
359,4.800,0.0202513115915773
360,4.807,0.0198676319024499
361,4.815,0.023721868779593
362,4.822,0.0320302780477875
363,4.830,0.0410851187111934
364,4.838,0.0371715858820943
365,4.845,0.0374785296333962
366,4.853,0.0231603012345975
367,4.860,0.0151937156894438
368,4.868,0.0244648121776306
369,4.875,0.0187793767841978
370,4.883,0.0157064512740049
371,4.890,0.0153018436018342
372,4.898,0.0147960840116209
373,4.905,0.0196653280663646
374,4.913,0.0123719259757707
375,4.920,0.0182980331742016
376,4.928,0.0130834773992433
377,4.935,0.0160796669716106
378,4.943,0.0201675996594041
379,4.951,0.0188142567559366
380,4.958,0.0164354426833469
381,4.966,0.0181794412702895
382,4.973,0.0139485006983668
383,4.981,0.010540727459481
384,4.988,0.0146426121359699
385,4.996,0.0164598586635641
386,5.003,0.0349427556879816
387,5.011,0.0521211417693661
388,5.018,0.0339521644905982
389,5.026,0.0201431836791869
390,5.033,0.0157901632061782
391,5.041,0.0132160212918509
392,5.049,0.0238020927145924
393,5.056,0.016888882315952
394,5.064,0.0243985402313268
395,5.071,0.0220546061304759
396,5.079,0.0189572646400659
397,5.086,0.027701673554996
398,5.094,0.0184759210300697
399,5.101,0.0149530438844457
400,5.109,0.014276372432712
401,5.116,0.0113115748349096
402,5.124,0.0273179938658686
403,5.131,0.0252984435021891
404,5.139,0.0184794090272436
405,5.146,0.0105302634679593
406,5.154,0.0108337192220873
407,5.162,0.0181689772787678
408,5.169,0.00235439809237249
409,5.177,0.0191491044846296
410,5.184,0.0226615176387319
411,5.192,0.0165086906239985
412,5.199,0.0114197027473
413,5.207,0.0184584810442003
414,5.214,0.019895535879841
415,5.222,0.0202931675576639
416,5.229,0.00305897352149729
417,5.237,0.0096198962055753
418,5.244,0.00761778582776521
419,5.252,0.0158808511326992
420,5.259,0.00820028135580403
421,5.267,0.00518665179756725
422,5.275,0.014457748285754
423,5.282,0.0167423864346488
424,5.290,0.00766312979102572
425,5.297,0.0200838877272308
426,5.305,0.00613189903169013
427,5.312,0.012818389614028
428,5.320,0.00943852035253327
429,5.327,0.00856652105906198
430,5.335,0.0135717970035872
431,5.342,0.0069376263788576
432,5.350,0.0125986457920732
433,5.357,0.0127032857072898
434,5.365,0.0133101972155458
435,5.373,0.00566450741038952
436,5.380,0.0172341940361666
437,5.388,0.00812703341515245
438,5.395,0.00422396457757494
439,5.403,0.00976290408970459
440,5.410,0.00439487643909531
441,5.418,0.00388562885170808
442,5.425,0
443,5.433,0.0144089163253196
444,5.440,0.0185038250074608
445,5.448,0.0130765014048955
446,5.455,0.0055738194838685
447,5.463,0.00666905059646845
448,5.470,0.0140461646192356
449,5.478,0.0175306737959469
450,5.486,0.00708063426298689
451,5.493,0.00868511296297407
452,5.501,0.0222708619552568
453,5.508,0.015249523644226
454,5.516,0.00732828206233274
455,5.523,0.00477855612822268
456,5.531,0.00860140103080083
457,5.538,0.00173004659824704
458,5.546,0.00750616991820089
459,5.553,0.00587727523799651
460,5.561,0.000491807601517809
461,5.568,0.0052912917127838
462,5.576,0.00774335372602508
463,5.584,0.00556335549234685
464,5.591,0.00695506636472703
465,5.599,0.0115103906738211
466,5.606,0.00448207636844244
467,5.614,0.0076910337684168
468,5.621,0.00874789691210401
469,5.629,0.00280783772497756
470,5.636,0.0126160857779427
471,5.644,0.0176213617224679
472,5.651,0.0121661341425115
473,5.659,0.0313884865677926
474,5.666,0.0277784094928215
475,5.674,0.011998710278165
476,5.681,0.0117161825070803
477,5.689,0.0129125655377229
478,5.697,0.0150297798222712
479,5.704,0.00959896822253199
480,5.712,0.0135055250572834
481,5.719,0.0157099392711788
482,5.727,0.014914675915533
483,5.734,0.0172690740079055
484,5.742,0.00943503235535938
485,5.749,0.00941061637514219
486,5.757,0.0175690417648596
487,5.764,0.00541337161386978
488,5.772,0.0127032857072898
489,5.779,0.00744338596907095
490,5.787,0.0135404050290222
491,5.795,0.0157552832344393
492,5.802,0.02290218944373
493,5.810,0.016281970807696
494,5.817,0.0343916521345078
495,5.825,0.0311408387684468
496,5.832,0.00325430136323486
497,5.840,0.0200071517894053
498,5.847,0.0139380367068451
499,5.855,0.0145972681727094
500,5.862,0.0148100360003164
501,5.870,0.0104814315075249
502,5.877,0.0191560804789774
503,5.885,0.0253228594824063
504,5.892,0.0179352814681175
505,5.900,0.0151727877064005
506,5.908,0.0154204355057463
507,5.915,0.00868860096014796
508,5.923,0.0137427088651076
509,5.930,0.00555289150082519
510,5.938,0.0119463903205567
511,5.945,0.00991288796818165
512,5.953,0.0156366913305272
513,5.960,0.0204291994474454
514,5.968,0.00965826417448803
515,5.975,0.0116359585720809
516,5.983,0.00168470263498654
517,5.990,0.0145030922490145
518,5.998,0.0169830582396469
519,6.006,0.00862930500819191
520,6.013,0.00845839314667154
521,6.021,0.0174923058270341
522,6.028,0.0152390596527043
523,6.036,0.00164982266324769
524,6.043,0.0114197027473
525,6.051,0.0162156988613922
526,6.058,0.00530175570430546
527,6.066,0.0132822932381547
528,6.073,0.00838863320319383
529,6.081,0.0164738106522597
530,6.088,0.0067492745314678
531,6.096,0.0136555089357604
532,6.103,0.00252879795106675
533,6.111,0.0151518597233572
534,6.119,0.00801192950841424
535,6.126,0.00469833219322332
536,6.134,0.0138961807407585
537,6.141,0.00989544798231223
538,6.149,0.0115801506172988
539,6.156,0.012089398204686
540,6.164,0.013669460924456
541,6.171,0.00424140456344437
542,6.179,0.0117650144675147
543,6.186,0.00967919215753135
544,6.194,0.0160657149829151
545,6.201,0.00189747046259353
546,6.209,0.0043286044927915
547,6.216,0.00667602659081622
548,6.224,0.00434953247583481
549,6.232,0.0086083770251486
550,6.239,0.00850373710993204
551,6.247,0.0149495558872718
552,6.254,0.0111581029592587
553,6.262,0.0182736171939844
554,6.269,0.00744338596907095
555,6.277,0.0107395432983924
556,6.284,0.0114057507586045
557,6.292,0.00154169475085725
558,6.299,0.0146077321642311
559,6.307,0.012727701687507
560,6.314,0.013941524704019
561,6.322,0.0144996042518407
562,6.330,0.00373564497323102
563,6.337,0.00543081159973921
564,6.345,0.0198571679109283
565,6.352,0.00892578476797215
566,6.360,0.00610050705712516
567,6.367,0.0035996130834495
568,6.375,0.0148763079466202
569,6.382,0.00730735407928943
570,6.390,0.00777125770341616
571,6.397,0.00875138490927789
572,6.405,0.0171853620757322
573,6.412,0.0146670281161871
574,6.420,0.0229545094013383
575,6.427,0.0161075709490017
576,6.435,0.0143217163959725
577,6.443,0.0156576193135705
578,6.450,0.0144786762687973
579,6.458,0.0208477591083117
580,6.465,0.0128114136196802
581,6.473,0.00156611073107444
582,6.480,0.00669346657668564
583,6.488,0.00942456836383773
584,6.495,0.00857000905623586
585,6.503,0.0103140076431784
586,6.510,0.0169377142763864
587,6.518,0.0103174956403523
588,6.525,0.0150262918250973
589,6.533,0.0066550986077729
590,6.541,0.0196374240889735
591,6.548,0.0194420962472359
592,6.556,0.0238962686382873
593,6.563,0.0260902188606611
594,6.571,0.01773995362638
595,6.578,0.0219743821954766
596,6.586,0.0125672538175083
597,6.593,0.0187375208181111
598,6.601,0.0233765570593784
599,6.608,0.0107953512531746
600,6.616,0.0185212649933303
601,6.623,0.0201745756537518
602,6.631,0.0163273147709565
603,6.638,0.0109244071486084
604,6.646,0.00828748128515116
605,6.654,0.00673881053994615
606,6.661,0.0023055661319381
607,6.669,0.0130520854246783
608,6.676,0.0197316000126684
609,6.684,0.0126858457214204
610,6.691,0.0161494269150883
611,6.699,0.024300876310458
612,6.706,0.0144437962970585
613,6.714,0.0139066447322802
614,6.721,0.0172655860107316
615,6.729,0.00630978688755827
616,6.736,0.00699692233081365
617,6.744,0.0190235365863697
618,6.752,0.0080677374631964
619,6.759,0.00828050529080339
620,6.767,0.00466345222148447
621,6.774,0.0166586745024756
622,6.782,0.0137531728566292
623,6.789,0.00792124158189322
624,6.797,0.00363798105236223
625,6.804,0.0111581029592587
626,6.812,0.00633420286777547
627,6.819,0.00617375499777675
628,6.827,0.0108267432277396
629,6.834,0.00696901835342257
630,6.842,0.0115069026766472
631,6.849,0.0110813670214332
632,6.857,0.0165121786211724
633,6.865,0.0154727554633546
634,6.872,0.0123858779644662
635,6.880,0.0116464225636026
636,6.887,0.000205791833259225
637,6.895,0.0130206934501133
638,6.902,0.00817237737841295
639,6.910,0.016888882315952
640,6.917,0.0169132982961692
641,6.925,0.011908022351644
642,6.932,0.0212523667804823
643,6.940,0.0242136763811108
644,6.947,0.00967570416035746
645,6.955,0.0194176802670187
646,6.962,0.00923621651644793
647,6.970,0.0137706128424987
648,6.978,0.00666556259929456
649,6.985,0.00664812261342513
650,6.993,0.0185526569678952
651,7.000,0.0212105108143957
652,7.008,0.0297142479243278
653,7.015,0.0221557580485186
654,7.023,0.0193862882924538
655,7.030,0.0226824456217753
656,7.038,0.0231672772289453
657,7.045,0.0157169152655266
658,7.053,0.0203978074728805
659,7.060,0.0205512793485314
660,7.068,0.018468945035722
661,7.076,0.0231323972572064
662,7.083,0.0165470585929112
663,7.091,0.024300876310458
664,7.098,0.0249217398074095
665,7.106,0.0208407831139639
666,7.113,0.0158808511326992
667,7.121,0.00522501976647998
668,7.128,0.0193723363037582
669,7.136,0.012361461984249
670,7.143,0.0264146025978324
671,7.151,0.0135229650431528
672,7.158,0.021294222746569
673,7.166,0.0216639504470008
674,7.173,0.019592080125713
675,7.181,0.0262053227673993
676,7.189,0.0251693876067554
677,7.196,0.0224906057772116
678,7.204,0.0300281676699774
679,7.211,0.0207710231704862
680,7.219,0.0328848373553894
681,7.226,0.0263413546571808
682,7.234,0.0392957761609903
683,7.241,0.0365681623710121
684,7.249,0.0280016413119501
685,7.256,0.0367076822579675
686,7.264,0.0231428612487281
687,7.271,0.0277505055154304
688,7.279,0.0116394465692548
689,7.287,0.0232021572006842
690,7.294,0.0191839844563684
691,7.302,0.0124591259051178
