#"+EI TIC Scan TOL-EndBlank.d "
#Point,X(Minutes),Y(Counts)
0,2.095,0.0876765701680082
1,2.102,0.0891830652753492
2,2.110,0.0927957633744883
3,2.117,0.067604419529191
4,2.125,0.069031435278351
5,2.132,0.075989491817293
6,2.140,0.0745155109928442
7,2.148,0.060256191595542
8,2.155,0.0716434160040286
9,2.163,0.0638363754117889
10,2.170,0.0641868071274054
11,2.178,0.0636954801859224
12,2.185,0.0583125600182051
13,2.193,0.0784208376380136
14,2.200,0.0704981907066015
15,2.208,0.0619613850983357
16,2.215,0.0701405335947867
17,2.223,0.0593313408821623
18,2.230,0.149121339438167
19,2.238,0.148973218816102
20,2.245,0.10894452387764
21,2.253,0.0708666859127137
22,2.261,0.0738327110521069
23,2.268,0.0735653713927706
24,2.276,0.0709389398746965
25,2.283,0.0752958537822583
26,2.291,0.0566940712697908
27,2.298,0.0588327885444811
28,2.306,0.0603176074632273
29,2.313,0.064800965804259
30,2.321,0.0519831129485133
31,2.328,0.0472829927215333
32,2.336,0.0622937533234565
33,2.343,0.058233080660024
34,2.351,0.061632629571314
35,2.359,0.0580849600379593
36,2.366,0.0680018163200963
37,2.374,0.0648948959548366
38,2.381,0.0456825674636146
39,2.389,0.0554476904255878
40,2.396,0.0424961677401739
41,2.404,0.0399564409764791
42,2.411,0.0573407442295367
43,2.419,0.0721094540588175
44,2.426,0.0500214178806807
45,2.434,0.159623452812364
46,2.441,0.459798925171738
47,2.449,0.282827296087307
48,2.456,0.063059645320474
49,2.464,0.059945499559016
50,2.472,0.0481970053406155
51,2.479,0.0392772537338409
52,2.487,0.0525864335310695
53,2.494,0.0412895265750614
54,2.502,0.0525250176633842
55,2.509,0.098290677183279
56,2.517,0.0862459417207491
57,2.524,0.102065946696879
58,2.532,0.0850862656309254
59,2.539,0.0566615569868985
60,2.547,0.0499527766167971
61,2.554,0.0518349923264486
62,2.562,0.065136946727479
63,2.570,0.0812242913629456
64,2.577,0.0739699935798742
65,2.585,0.0500575448616721
66,2.592,0.052391347833716
67,2.600,0.0473407958911195
68,2.607,0.0486991703763958
69,2.615,0.0444217358270151
70,2.622,0.0500105797863833
71,2.630,0.0395337552988798
72,2.637,0.0692518098623985
73,2.645,0.0812820945325319
74,2.652,0.0728645079615376
75,2.660,0.0578537473596144
76,2.667,0.0430344597569456
77,2.675,0.0513472780830648
78,2.683,0.0434390819440492
79,2.690,0.0631716389615473
80,2.698,0.0434643708307432
81,2.705,0.03709879678006
82,2.713,0.0483523513588785
83,2.720,0.0575900203983773
84,2.728,0.0522034875325608
85,2.735,0.0527887446246213
86,2.743,0.0510040717636466
87,2.750,0.068355860733812
88,2.758,0.104475616329005
89,2.765,0.0966071598690802
90,2.773,0.0630488072261765
91,2.780,0.0546420587494797
92,2.788,0.0662388196477164
93,2.796,0.102784873618608
94,2.803,0.0616109533827192
95,2.811,0.0484571196037535
96,2.818,0.0509679447826552
97,2.826,0.063839988109888
98,2.833,0.0621095057204004
99,2.841,0.0505091321240645
100,2.848,0.0458451388780759
101,2.856,0.0510329733484397
102,2.863,0.0493675195247366
103,2.871,0.0549852650688979
104,2.878,0.0565929157230149
105,2.886,0.0564845347800407
106,2.894,0.0603284455575248
107,2.901,0.052832097001811
108,2.909,0.0672286989268805
109,2.916,0.0625972199637841
110,2.924,0.0746491808225124
111,2.931,0.0599816265400074
112,2.939,0.0514375955355433
113,2.946,0.0597937662388522
114,2.954,0.0595697789567055
115,2.961,0.0554946555008766
116,2.969,0.123391703576098
117,2.976,3.55022009821264
118,2.984,25.3319103156367
119,2.991,64.8898995933655
120,2.999,100
121,3.007,27.4839909605958
122,3.014,0.190392802522733
123,3.022,0.111068790359934
124,3.029,0.0992588802738483
125,3.037,0.0706607621210627
126,3.044,0.0626911501143618
127,3.052,0.0786159233353672
128,3.059,0.0972140931497355
129,3.067,0.0859424750804214
130,3.074,0.0862784560036413
131,3.082,0.0805017517431178
132,3.089,0.0625213533037022
133,3.097,0.0649274102377289
134,3.105,0.0753789458385385
135,3.112,0.060230902708848
136,3.120,0.0431392280018207
137,3.127,0.067163670361096
138,3.135,0.0848297640658865
139,3.142,0.0992913945567405
140,3.150,0.0856968116096799
141,3.157,0.0533667763204836
142,3.165,0.0526948144740437
143,3.172,0.0648479308795478
144,3.180,0.0610004074039646
145,3.187,0.0592048964486925
146,3.195,0.0744649332194563
147,3.202,0.0626586358314695
148,3.210,0.0551478364833592
149,3.218,0.0505597098974525
150,3.225,0.0558342491221956
151,3.233,0.0432765105295879
152,3.240,0.0343784351114082
153,3.248,0.0337931780193477
154,3.255,0.0815096945127776
155,3.263,0.480188993243279
156,3.270,1.18497942731004
157,3.278,0.595477414983008
158,3.285,0.10718513990336
159,3.293,0.0452526563898171
160,3.300,0.0466471578560848
161,3.308,0.0733305460163266
162,3.316,0.0776982980181858
163,3.323,0.0637894103365001
164,3.331,0.052441925607104
165,3.338,0.042474491551579
166,3.346,0.0371457618553488
167,3.353,0.0439773739608209
168,3.361,0.0264160485009055
169,3.368,0.0345121049410764
170,3.376,0.0433632152839673
171,3.383,0.0315605305940797
172,3.391,0.0285945054546864
173,3.398,0.0280923404189061
174,3.406,0.025805502522151
175,3.413,0.0303213751460749
176,3.421,0.0312823528404459
177,3.429,0.0204009061658388
178,3.436,0.0323155844967997
179,3.444,0.0289232609817081
180,3.451,0.0578501346615153
181,3.459,0.191071989765371
182,3.466,0.277867061597189
183,3.474,0.110599139607046
184,3.481,0.0472035133633522
185,3.489,0.090191008045009
186,3.496,0.112835399730413
187,3.504,0.0544361349578288
188,3.511,0.0379477808333577
189,3.519,0.0266906135564401
190,3.526,0.0383524030204613
191,3.534,0.0286848229071649
192,3.542,0.0324962194017567
193,3.549,0.0264521754818969
194,3.557,0.0477923831535119
195,3.564,0.0361269809913916
196,3.572,0.034114708150171
197,3.579,0.031412409972015
198,3.587,0.03097166080392
199,3.594,0.0408776789917595
200,3.602,0.0389737870935132
201,3.609,0.0307874132008639
202,3.617,0.0280417626455181
203,3.624,0.0220735853857402
204,3.632,0.0280526007398155
205,3.640,0.0249854200536464
206,3.647,0.0306790322578897
207,3.655,0.0176986079876827
208,3.662,0.0294543276022815
209,3.670,0.030220219599299
210,3.677,0.0248553629220774
211,3.685,0.0219760425370635
212,3.692,0.031827870253416
213,3.700,0.0271674897055264
214,3.707,0.036527990480396
215,3.715,0.0358090635586673
216,3.722,0.0217665060473134
217,3.730,0.0277419087032896
218,3.737,0.0332765621911708
219,3.745,0.0368928729884091
220,3.753,0.031336543311933
221,3.760,0.0273083849313929
222,3.768,0.0296313498091394
223,3.775,0.0228503154770552
224,3.783,0.0356934572194949
225,3.790,0.0233416424185381
226,3.798,0.0276371404584145
227,3.805,0.0315460798016831
228,3.813,0.0247036296019135
229,3.820,0.0189160872470926
230,3.828,0.0277816483823801
231,3.835,0.0204117442601362
232,3.843,0.0234138963805209
233,3.851,0.0245446708855514
234,3.858,0.0191003348501487
235,3.866,0.0220916488762359
236,3.873,0.0175541000637172
237,3.881,0.0246927915076161
238,3.888,0.0223626012336714
239,3.896,0.0170447096317385
240,3.903,0.0166798271237255
241,3.911,0.0303936291080577
242,3.918,0.0257982771259527
243,3.926,0.0185512047390796
244,3.933,0.0225649123272232
245,3.941,0.0215714203499599
246,3.948,0.0300251339019455
247,3.956,0.0259536231442157
248,3.964,0.0499744528053919
249,3.971,0.0992480421795509
250,3.979,0.0532078176041215
251,3.986,0.0219688171408652
252,3.994,0.0248806518087714
253,4.001,0.0277599721937853
254,4.009,0.0278755785329577
255,4.016,0.0194218649809721
256,4.024,0.0256393184095906
257,4.031,0.0198770649414636
258,4.039,0.0219868806313609
259,4.046,0.0190786586615539
260,4.054,0.0214016235393004
261,4.062,0.0170808366127299
262,4.069,0.0157441383160484
263,4.077,0.0303213751460749
264,4.084,0.0852127100643953
265,4.092,0.330677482410405
266,4.099,0.565459506477261
267,4.107,0.247448143602437
268,4.114,0.0491001798654003
269,4.122,0.0221024869705334
270,4.129,0.0246133121494351
271,4.137,0.0193387729246919
272,4.144,0.0216545124062401
273,4.152,0.0271096865359402
274,4.159,0.0152600367707638
275,4.167,0.0193640618113859
276,4.175,0.0210873188046753
277,4.182,0.025960848540414
278,4.190,0.0360438889351114
279,4.197,0.0277382960051904
280,4.205,0.0203575537886491
281,4.212,0.0224131790070593
282,4.220,0.025545388259013
283,4.227,0.0142593193973022
284,4.235,0.0293784609421996
285,4.242,0.0247831089600946
286,4.250,0.18247376828942
287,4.257,0.540781165762041
288,4.265,0.312231045916201
289,4.273,0.065527118122186
290,4.280,0.0274998579306472
291,4.288,0.0298625624874843
292,4.295,0.0275251468173412
293,4.303,0.0233380297204389
294,4.310,0.0234247344748183
295,4.318,0.028583667360389
296,4.325,0.028038149947419
297,4.333,0.0203683918829466
298,4.340,0.0229334075333354
299,4.348,0.0165425445959582
300,4.355,0.0265280421419788
301,4.363,0.0229514710238311
302,4.370,0.0238474201524176
303,4.378,0.0187788047193253
304,4.386,0.0198481633566705
305,4.393,0.0228864424580465
306,4.401,0.0152455859783672
307,4.408,0.0367772666492366
308,4.416,0.137799143595465
309,4.423,0.135830223131434
310,4.431,0.0432367708504974
311,4.438,0.024638601036129
312,4.446,0.0245013185083618
313,4.453,0.026116194558677
314,4.461,0.0208669442206278
315,4.468,0.022976759910525
316,4.476,0.0280778896265095
317,4.483,0.0253683660521551
318,4.491,0.01892692534139
319,4.499,0.0189413761337866
320,4.506,0.0140244940208582
321,4.514,0.0224673694785464
322,4.521,0.0215605822556625
323,4.529,0.0152889383555569
324,4.536,0.015292551053656
325,4.544,0.0309535973134243
326,4.551,0.0148156749045697
327,4.559,0.0179984619299113
328,4.566,0.0194579919619635
329,4.574,0.0156176938825786
330,4.581,0.0177853127420621
331,4.589,0.0195844363954334
332,4.597,0.0190389189824633
333,4.604,0.0161632112955486
334,4.612,0.0218387600092962
335,4.619,0.0183127666645364
336,4.627,0.023157394815482
337,4.634,0.0249565184688533
338,4.642,0.0251154771852154
339,4.649,0.0215063917841754
340,4.657,0.0154623478643156
341,4.664,0.0106357832038657
342,4.672,0.0173265000834714
343,4.679,0.015913935126708
344,4.687,0.0254731342970302
345,4.694,0.0188727348699029
346,4.702,0.0179189825717302
347,4.710,0.0249890327517455
348,4.717,0.023572855096883
349,4.725,0.0177455730629715
350,4.732,0.023702912228452
351,4.740,0.0105888181285769
352,4.747,0.0147361955463886
353,4.755,0.0228539281751543
354,4.762,0.0103106403749431
355,4.770,0.0189486015299849
356,4.777,0.00977957375436969
357,4.785,0.0303719529194629
358,4.792,0.0221386139515247
359,4.800,0.0175938397428077
360,4.808,0.0102347737148612
361,4.815,0.0203720045810457
362,4.823,0.0199059665262567
363,4.830,0.0396746505247462
364,4.838,0.0814844056260837
365,4.845,0.0793023359742036
366,4.853,0.0389232093201253
367,4.860,0.027882803929156
368,4.868,0.0232730011546544
369,4.875,0.00834533260901145
370,4.883,0.0256068041266983
371,4.890,0.00843926275958907
372,4.898,0.021314918784921
373,4.905,0.0148301256969662
374,4.913,0.0154370589776216
375,4.921,0.012279560838974
376,4.928,0.0221422266496239
377,4.936,0.0248481375258791
378,4.943,0.0167737572743031
379,4.951,0.0244615788292712
380,4.958,0.0250901882985214
381,4.966,0.0293856863383979
382,4.973,0.0213438203697141
383,4.981,0.025129927977612
384,4.988,0.028583667360389
385,4.996,0.0150288240924189
386,5.003,0.0186559729839546
387,5.011,0.0212246013324425
388,5.019,0.0206248934479854
389,5.026,0.0192340046798169
390,5.034,0.0165172557092642
391,5.041,0.0134175607402028
392,5.049,0.00972899598098175
393,5.056,0.0183380555512304
394,5.064,0.030350276730868
395,5.071,0.00977957375436969
396,5.079,0.0166798271237255
397,5.086,0.0156791097502639
398,5.094,0.0076300183853819
399,5.101,0.0128612052329354
400,5.109,0.0210909315027744
401,5.116,0.0232549376641587
402,5.124,0.019548309414442
403,5.132,0.0213799473507055
404,5.139,0.0211306711818649
405,5.147,0.0240677947364651
406,5.154,0.0131213194960734
407,5.162,0.0136740623052417
408,5.169,0.0145266590566385
409,5.177,0.0185981698143684
410,5.184,0.0093930150577618
411,5.192,0.0166364747465358
412,5.199,0.0216725758967358
413,5.207,0.0160981827297641
414,5.214,0.0178395032135492
415,5.222,0.0128828814215302
416,5.229,0.00961700233990843
417,5.237,0.0159428367115011
418,5.245,0.0193821253018816
419,5.252,0.0165244811054625
420,5.260,0.022196417121111
421,5.267,0.00881859605999868
422,5.275,0.017886468288838
423,5.282,0.0159175478248071
424,5.290,0.0184572745885019
425,5.297,0.0242664931319177
426,5.305,0.0159500621076994
427,5.312,0.0155346018262984
428,5.320,0.0212968552944253
429,5.327,0.0292664673011263
430,5.335,0.0179298206660276
431,5.343,0.0111307228434477
432,5.350,0.0188402205870107
433,5.358,0.0287209498881563
434,5.365,0.0158778081457166
435,5.373,0.0193821253018816
436,5.380,0.0186270713991615
437,5.388,0.0221855790268136
438,5.395,0.0105526911475855
439,5.403,0.0186487475877563
440,5.410,0.0158055541837338
441,5.418,0.0216111600290504
442,5.425,0.0232910646451501
443,5.433,0.00798767549719667
444,5.440,0.014642265395811
445,5.448,0.0265352675381771
446,5.456,0.0167918207647988
447,5.463,0.0106502339962622
448,5.471,0.0155418272224966
449,5.478,0.0138872114930909
450,5.486,0.0111560117301417
451,5.493,0.0254731342970302
452,5.501,0.0323553241758903
453,5.508,0.0430308470588465
454,5.516,0.0276154642698197
455,5.523,0.00749273585761461
456,5.531,0.0162752049366219
457,5.538,0.0170013572545489
458,5.546,0.015708011335057
459,5.554,0.0231971344945725
460,5.561,0.022716645647387
461,5.569,0.019002792001472
462,5.576,0.0170591604241351
463,5.584,0.0100685896023008
464,5.591,0.0216798012929341
465,5.599,0.0110909831643572
466,5.606,0.0207910775605458
467,5.614,0.0112643926731159
468,5.621,0.0149493447342378
469,5.629,0.0186090079086658
470,5.636,0.0192592935665108
471,5.644,0.00889807541817974
472,5.651,0.0259536231442157
473,5.659,0.00829114213752436
474,5.667,0.0244073883577841
475,5.674,0.0185331412485839
476,5.682,0.020328652203856
477,5.689,0.0215244552746711
478,5.697,0.0221602901401196
479,5.704,0.0210222902388907
480,5.712,0.0262534770864442
481,5.719,0.0177022206857819
482,5.727,0.0251588295624051
483,5.734,0.0228286392884603
484,5.742,0.0160114779753847
485,5.749,0.0118821640480687
486,5.757,0.0150432748848154
487,5.765,0.0153539669213414
488,5.772,0.0166075731617427
489,5.780,0.020458709335425
490,5.787,0.0200576998464206
491,5.795,0.0246819534133187
492,5.802,0.00627525659820471
493,5.810,0.016434163652984
494,5.817,0.0145230463585394
495,5.825,0.0142882209820954
496,5.832,0.0147289701501903
497,5.840,0.0123951671781464
498,5.847,0.0210584172198821
499,5.855,0.018822157096515
500,5.862,0.0222289314040032
501,5.870,0.013265827420039
502,5.878,0.0193279348303945
503,5.885,0.0227021948549905
504,5.893,0.0169652302735575
505,5.900,0.0111776879187365
506,5.908,0.0221928044230118
507,5.915,0.0193532237170885
508,5.923,0.0211667981628563
509,5.930,0.0121964687826938
510,5.938,0.0173337254796697
511,5.945,0.0184536618904028
512,5.953,0.0129081703082242
513,5.960,0.0171530905747127
514,5.968,0.0106682974867579
515,5.975,0.0167123414066177
516,5.983,0.015993414484889
517,5.991,0.0119833195948446
518,5.998,0.0159681255981951
519,6.006,0.0128214655538449
520,6.013,0.0152781002612595
521,6.021,0.0112102022016288
522,6.028,0.0152491986764664
523,6.036,0.0180056873261096
524,6.043,0.0144218908117635
525,6.051,0.0119869322929437
526,6.058,0.0158163922780312
527,6.066,0.00851512941967099
528,6.073,0.0227347091378827
529,6.081,0.0301190640525231
530,6.089,0.0230092741934173
531,6.096,0.0118243608784825
532,6.104,0.0129587480816122
533,6.111,0.0156682716559665
534,6.119,0.014382151132673
535,6.126,0.0128395290443406
536,6.134,0.0201335665065025
537,6.141,0.0136451607204486
538,6.149,0.0165967350674453
539,6.156,0.0196892046403084
540,6.164,0.0222361568002015
541,6.171,0.0125107735173189
542,6.179,0.00969648169808949
543,6.186,0.0133380813820218
544,6.194,0.0165317065016608
545,6.202,0.0178503413078466
546,6.209,0.0139269511721814
547,6.217,0.00838507228810198
548,6.224,0.0154153827890268
549,6.232,0.0152672621669621
550,6.239,0.0154045446947294
551,6.247,0.0123771036876507
552,6.254,0.0137427035691253
553,6.262,0.016018703371583
554,6.269,0.0223336996488783
555,6.277,0.0131285448922717
556,6.284,0.0127961766671509
557,6.292,0.0242448169433229
558,6.300,0.00735184063174818
559,6.307,0.0205020617126147
560,6.315,0.0155960176939837
561,6.322,0.0174890714979327
562,6.330,0.0147687098292809
563,6.337,0.0141870654353195
564,6.345,0.0184464364942045
565,6.352,0.0134356242306985
566,6.360,0.0166473128408332
567,6.367,0.00997827214982235
568,6.375,0.0140786844923453
569,6.382,0.015368417713738
570,6.390,0.000534679318672595
571,6.397,0.0133344686839226
572,6.405,0.0165497699921565
573,6.413,0.0175360365732215
574,6.420,0.0138041194368107
575,6.428,0.0161054081259624
576,6.435,0.00561052014796311
577,6.443,0.00785761836562766
578,6.450,0.00828752943942522
579,6.458,0.0140208813227591
580,6.465,0.00605126931605808
581,6.473,0.0170085826507471
582,6.480,0.0133489194763192
583,6.488,0.0153070018460526
584,6.495,0.0139233384740823
585,6.503,0.0126372179507888
586,6.511,0.0107152625620467
587,6.518,0.0158308430704278
588,6.526,0.0119146783309609
589,6.533,0.0115678593134436
590,6.541,0.0153792558080354
591,6.548,0.013525941683177
592,6.556,0.0125179989135172
593,6.563,0.0184283730037088
594,6.571,0.0164486144453806
595,6.578,0.0158308430704278
596,6.586,0.00135476178717718
597,6.593,0.0224998837614387
598,6.601,0.0241111471136547
599,6.608,0.0257766009373579
600,6.616,0.0140570083037505
601,6.624,0.0141401003600307
602,6.631,0.00401009489004446
603,6.639,0.0133778210611123
604,6.646,0.0202166585627827
605,6.654,0.0165714461807513
606,6.661,0.00466038054788951
607,6.669,0.0113474847293961
608,6.676,0.0131538337789657
609,6.684,0.00776007551695091
610,6.691,0.0131971861561553
611,6.699,0.00670155497390313
612,6.706,0.0149782463190309
613,6.714,0.00912206270032637
614,6.722,0.00375720602310472
615,6.729,0.019523020527748
616,6.737,0.0113474847293961
617,6.744,0.0187354523421357
618,6.752,0.0107297133544433
619,6.759,0.0108164181088226
620,6.767,0.0140244940208582
621,6.774,0.00315388544054848
622,6.782,0.013240538533345
623,6.789,0.0145555606414317
624,6.797,0.0182116111177605
625,6.804,0.0130888052131812
626,6.812,0.00735545332984732
627,6.819,0.00938578966156353
628,6.827,0.0103178657711414
629,6.835,0.00507222813119137
630,6.842,0.0124963227249223
631,6.850,0.0109573133346891
632,6.857,0.0219579790465678
633,6.865,0.0145411098490351
634,6.872,0.0158994843343114
635,6.880,0.0190533697748599
636,6.887,0.0241003090193573
637,6.895,0.0114089005970815
638,6.902,0.0179189825717302
639,6.910,0.0172867604043809
640,6.917,0.00987711660304645
641,6.925,0.0243495851881979
642,6.932,0.0167845953686005
643,6.940,0.0109573133346891
644,6.948,0.0212787918039296
645,6.955,0.0170013572545489
646,6.963,0.0156429827692725
647,6.970,0.011473929162866
648,6.978,0.0181682587405708
649,6.985,0.0215389060670676
650,6.993,0.0112354910883228
651,7.000,0.0142087416239143
652,7.008,0.0217195409720246
653,7.015,0.00931353569958074
654,7.023,0.0196097252821273
655,7.030,0.0117159799355083
656,7.038,0.0220193949142532
657,7.046,0.0163438462005055
658,7.053,0.019783134790886
659,7.061,0.0260150390119011
660,7.068,0.0259427850499183
661,7.076,0.0191472999254375
662,7.083,0.0155418272224966
663,7.091,0.0227202583454861
664,7.098,0.0239594137934909
665,7.106,0.0181249063633811
666,7.113,0.0175793889504111
667,7.121,0.0110115038061761
668,7.128,0.0170410969336394
669,7.136,0.0195772109992351
670,7.143,0.0119724815005472
671,7.151,0.0242303661509263
672,7.159,0.0173626270644628
673,7.166,0.0277852610804792
674,7.174,0
675,7.181,0.0203575537886491
676,7.189,0.0226516170816025
677,7.196,0.0176913825914844
678,7.204,0.0117846211993919
679,7.211,0.017861179402144
680,7.219,0.0200902141293128
681,7.226,0.0350178826749558
682,7.234,0.0285945054546864
683,7.241,0.0263004421617331
684,7.249,0.0229803726086242
685,7.257,0.025650156503888
686,7.264,0.0198011982813817
687,7.272,0.0177022206857819
688,7.279,0.0227888996093698
689,7.287,0.0182188365139588
690,7.294,0.0198373252623731
691,7.302,0.0155707288072898
692,7.309,0.0169977445564497
693,7.317,0.0226660678739991
694,7.324,0.0174312683283464
