#"+EI TIC Scan ACE-End-Blank.d "
#Point,X(Minutes),Y(Counts)
0,2.095,0.0886440828145266
1,2.102,0.0804998624010509
2,2.110,0.0691278017504019
3,2.117,0.0709527893613797
4,2.125,0.0634097915019878
5,2.132,0.0722234583054717
6,2.140,0.0634183194814784
7,2.147,0.0684668833398842
8,2.155,0.0531847440928178
9,2.162,0.0668892071341324
10,2.170,0.0633373036763182
11,2.178,0.0538200785648639
12,2.185,0.0605188064546912
13,2.193,0.0651580272975507
14,2.200,0.0329734327002133
15,2.208,0.0568176633557923
16,2.215,0.0492490815579288
17,2.223,0.0547922682267866
18,2.230,0.0437272148377974
19,2.238,0.0379964126201475
20,2.245,0.0406187663134918
21,2.253,0.0411986689188492
22,2.260,0.041799891472933
23,2.268,0.0510271652817086
24,2.276,0.0471170866852912
25,2.283,0.0487672507167127
26,2.291,0.0472407423879042
27,2.298,0.036563712065735
28,2.306,0.0390837300051927
29,2.313,0.0406400862622181
30,2.321,0.0387426108255707
31,2.328,0.0353228910498599
32,2.336,0.0290633541037959
33,2.343,0.0362268568758583
34,2.351,0.0503193429839929
35,2.358,0.0426612174014786
36,2.366,0.031404284473952
37,2.373,0.0403543989492847
38,2.381,0.0470147509314046
39,2.389,0.164641172044567
40,2.396,0.27569678496026
41,2.404,0.0997048722137705
42,2.411,0.0298095523092191
43,2.419,0.0289311704216924
44,2.426,0.0366319359016594
45,2.434,0.0451428594332288
46,2.441,0.0425332977091203
47,2.449,0.0347174045060309
48,2.456,0.0389387543538533
49,2.464,0.02773298930327
50,2.471,0.0430833523862608
51,2.479,0.0243260614967951
52,2.487,0.0335874472235329
53,2.494,0.0382181400869018
54,2.502,0.0250381477842561
55,2.509,0.0428147210323085
56,2.517,0.0371009747736397
57,2.524,0.0272810063902709
58,2.532,0.0353996428652749
59,2.539,0.0330118086079208
60,2.547,0.044417981176532
61,2.554,0.0340309021570415
62,2.562,0.0292168577346258
63,2.569,0.0397275924567292
64,2.577,0.0339669423108624
65,2.584,0.0299417359913226
66,2.592,0.0336727270184384
67,2.600,0.035199235347247
68,2.607,0.0261467851180277
69,2.615,0.0280016206572224
70,2.622,0.0248889081431715
71,2.630,0.0382650439740998
72,2.637,0.0421111627243381
73,2.645,0.0281167483803448
74,2.652,0.0355062426089068
75,2.660,0.0393097214616923
76,2.667,0.0295792968629742
77,2.675,0.0448102682330973
78,2.682,0.0376126535430727
79,2.690,0.0222196505626292
80,2.698,0.0363121366707638
81,2.705,0.0391263699026454
82,2.713,0.0386104271434671
83,2.720,0.0457227620385862
84,2.728,0.0628128329376493
85,2.735,0.0482427799780439
86,2.743,0.0324830738795066
87,2.750,0.0462429687875098
88,2.758,0.0415184681497448
89,2.765,0.0435268073197695
90,2.773,0.0500933515274933
91,2.780,0.0352973071113883
92,2.788,0.0308670217660473
93,2.795,0.045176971351191
94,2.803,0.0530227124824974
95,2.811,0.0472450063776495
96,2.818,0.0298266082682002
97,2.826,0.0304406227915198
98,2.833,0.0390666740462116
99,2.841,0.0509120375585861
100,2.848,0.0448102682330973
101,2.856,0.0324319060025633
102,2.863,0.0395740888258993
103,2.871,0.0319031712741492
104,2.878,0.0341076539724565
105,2.886,0.0376851413687424
106,2.893,0.0413479085599338
107,2.901,0.0428658889092518
108,2.909,0.0431430482426947
109,2.916,0.0553210029552007
110,2.924,0.048136180234412
111,2.931,0.0383545877587506
112,2.939,0.0391093139436643
113,2.946,0.0540503340111087
114,2.954,0.744317785945497
115,2.961,13.4571303161399
116,2.969,54.5799130094924
117,2.976,100
118,2.984,20.4707240007276
119,2.991,0.212555624812225
120,2.999,0.112326281859785
121,3.006,0.105167043077468
122,3.014,0.0814763160527189
123,3.022,0.0628043049581587
124,3.029,0.0598067201672303
125,3.037,0.0804401665446171
126,3.044,0.0702193831251924
127,3.052,0.0542976454163347
128,3.059,0.062979128537715
129,3.067,0.0716307637308785
130,3.074,0.0487843066756938
131,3.082,0.0511678769433027
132,3.089,0.0542976454163347
133,3.097,0.042141010652555
134,3.104,0.0394419051437958
135,3.112,0.0477438931778467
136,3.119,0.0557303459707471
137,3.127,0.0785426911079696
138,3.135,0.0497437043683807
139,3.142,0.0297839683707474
140,3.150,0.0373525501686109
141,3.157,0.0612948525883313
142,3.165,0.0523490021027439
143,3.172,0.0340266381672963
144,3.180,0.0594954489158252
145,3.187,0.036052033296302
146,3.195,0.0316473318894327
147,3.202,0.041923547175546
148,3.210,0.025826985887132
149,3.217,0.0456204262846996
150,3.225,0.0436248790839108
151,3.233,0.0259421136102545
152,3.240,0.0318136274894984
153,3.248,0.0530653523799501
154,3.255,0.050754269938011
155,3.263,0.0463069286336889
156,3.270,0.0330544485053735
157,3.278,0.0340564860955132
158,3.285,0.0387340828460801
159,3.293,0.0275325817852421
160,3.300,0.0387895147127687
161,3.308,0.0592225535721276
162,3.315,0.0333358718285617
163,3.323,0.0315492601252914
164,3.330,0.0218358914855544
165,3.338,0.0208423818749053
166,3.346,0.0169706791861954
167,3.353,0.022403002121676
168,3.361,0.0134912635540508
169,3.368,0.0231961042142972
170,3.376,0.0279035488930811
171,3.383,0.0224328500498929
172,3.391,0.0129412088769103
173,3.398,0.0278694369751189
174,3.406,0.0306026544018403
175,3.413,0.0351352755010678
176,3.421,0.0366575198401311
177,3.428,0.0168811354015446
178,3.436,0.0149239641084633
179,3.444,0.0290846740525223
180,3.451,0.0184716035765323
181,3.459,0.0185782033201641
182,3.466,0.0228336650859488
183,3.474,0.0200407518027935
184,3.481,0.0490401460604103
185,3.489,0.0885929149375833
186,3.496,0.0524854497745927
187,3.504,0.016066713360197
188,3.511,0.0289610183499093
189,3.519,0.027003847056828
190,3.526,0.0236310311683153
191,3.534,0.0216994438137056
192,3.541,0.0121395788047986
193,3.549,0.0266712558566965
194,3.557,0.0311271251405091
195,3.564,0.0197635924693507
196,3.572,0.0302999111299257
197,3.579,0.01154262024046
198,3.587,0.0228336650859488
199,3.594,0.0115767321584222
200,3.602,0.0235969192503531
201,3.609,0.0197038966129168
202,3.617,0.0251831234355955
203,3.624,0.0135339034515036
204,3.632,0.0127621213076087
205,3.639,0.0225351858037795
206,3.647,0.0111844451018569
207,3.655,0.0243687013942479
208,3.662,0.0148216283545767
209,3.670,0.0274942058775346
210,3.677,0.0228123451372224
211,3.685,0.0090865621471815
212,3.692,0.0174567740171568
213,3.700,0.0149793959751519
214,3.707,0.021008677474971
215,3.715,0.018731706950994
216,3.722,0.0163268167346588
217,3.730,0.0278694369751189
218,3.737,0.0199298880694164
219,3.745,0.0183266279251929
220,3.752,0.0210214694442068
221,3.760,0.0225778257012323
222,3.768,0.0263557206155461
223,3.775,0.0183692678226457
224,3.783,0.027562429713459
225,3.790,0.0151883314726703
226,3.798,0.0188041947766637
227,3.805,0.0220362990035823
228,3.813,0.0215118282649135
229,3.820,0.0277159333442889
230,3.828,0.0234050397118157
231,3.835,0.0195589209615774
232,3.843,0.0268887193337055
233,3.850,0.0233410798656366
234,3.858,0.0209447176287919
235,3.865,0.0197763844385865
236,3.873,0.0194608491974361
237,3.881,0.0117259717995069
238,3.888,0.0130819205385044
239,3.896,0.00196996326231715
240,3.903,0.0168512874733277
241,3.911,0.0214009645315363
242,3.918,0.022820873116713
243,3.926,0.0126214096460147
244,3.933,0.0214222844802627
245,3.941,0.0341033899827112
246,3.948,0.0230212806347409
247,3.956,0.0282020281752503
248,3.963,0.0398256642208706
249,3.971,0.0659767133286435
250,3.979,0.0652774190104184
251,3.986,0.0295537129245026
252,3.994,0.0354465467524729
253,4.001,0.023208896183533
254,4.009,0.0139603024260311
255,4.016,0.0231961042142972
256,4.024,0.017925812889137
257,4.031,0.0170175830733934
258,4.039,0.0168043835861297
259,4.046,0.0220576189523087
260,4.054,0.0336258231312404
261,4.061,0.0237887987888905
262,4.069,0.0315066202278386
263,4.076,0.0114104365583565
264,4.084,0.0311782930174524
265,4.092,0.0168512874733277
266,4.099,0.0261084092103202
267,4.107,0.0252428192920293
268,4.114,0.00784574113130641
269,4.122,0.0280911644418732
270,4.129,0.0180537325814953
271,4.137,0.021255988880197
272,4.144,0.0275112618365157
273,4.152,0.0260657693128674
274,4.159,0.0228080811474772
275,4.167,0.0198744562027278
276,4.174,0.0328838889155625
277,4.182,0.0299843758887754
278,4.190,0.029374625355201
279,4.197,0.0164590004167624
280,4.205,0.0107793660760558
281,4.212,0.0262278009231879
282,4.220,0.0188212507356448
283,4.227,0.016702047832243
284,4.235,0.0322613464127523
285,4.242,0.0252854591894821
286,4.250,0.0201516155361707
287,4.257,0.0175292618428264
288,4.265,0.0186975950330318
289,4.272,0.0281338043393259
290,4.280,0.0242024057941822
291,4.287,0.0245435249738042
292,4.295,0.0187103870022677
293,4.303,0.0262832327898765
294,4.310,0.0183394198944287
295,4.318,0.0206718222850943
296,4.325,0.0212901007981592
297,4.333,0.0163054967859324
298,4.340,0.0198744562027278
299,4.348,0.0324319060025633
300,4.355,0.0210385254031879
301,4.363,0.0175804297197697
302,4.370,0.0239380384299751
303,4.378,0.0364571123221031
304,4.385,0.0240489021633523
305,4.393,0.0230553925527031
306,4.401,0.0185782033201641
307,4.408,0.0245477889635495
308,4.416,0.0796726483904675
309,4.423,0.115954937133014
310,4.431,0.0458421537514539
311,4.438,0.0121523707740344
312,4.446,0.0218188355265733
313,4.453,0.018514243473985
314,4.461,0.0198531362540014
315,4.468,0.0219254352702052
316,4.476,0.0176955574428922
317,4.483,0.0101141836757928
318,4.491,0.027562429713459
319,4.498,0.0103870790194904
320,4.506,0.0309096616635001
321,4.514,0.024679972645653
322,4.521,0.0237589508606735
323,4.529,0.0312934207405749
324,4.536,0.0161178812371403
325,4.544,0.0243217975070499
326,4.551,0.0335703912645518
327,4.559,0.0274558299698272
328,4.566,0.0309480375712076
329,4.574,0.00884351473170081
330,4.581,0.0180579965712406
331,4.589,0.0288586825960227
332,4.596,0.0147917804263597
333,4.604,0.0183863237816268
334,4.611,0.0265177522258666
335,4.619,0.0117515557379785
336,4.627,0.0236011832400984
337,4.634,0.0192220657717007
338,4.642,0.0231961042142972
339,4.649,0.0208892857621033
340,4.657,0.0316132199714705
341,4.664,0.0212218769622348
342,4.672,0.0142459897389645
343,4.679,0.021814571536828
344,4.687,0.0286241631600326
345,4.694,0.0133846638104189
346,4.702,0.0279888286879866
347,4.709,0.0261808970359899
348,4.717,0.00875823493679531
349,4.725,0.028862946585768
350,4.732,0.0264751123284139
351,4.740,0.0170303750426292
352,4.747,0.0159217377088577
353,4.755,0.0292680256115691
354,4.762,0.0114658684250451
355,4.770,0.0257374421024812
356,4.777,0.0224413780293835
357,4.785,0.0179769807660803
358,4.792,0.0163310807244041
359,4.800,0.0123613062715529
360,4.807,0.0193158735460968
361,4.815,0.0134571516360886
362,4.822,0.0236182391990795
363,4.830,0.0170005271144123
364,4.838,0.0239892063069184
365,4.845,0.0178490610737221
366,4.853,0.0266925758054229
367,4.860,0
368,4.868,0.0180579965712406
369,4.875,0.0275197898160063
370,4.883,0.0203776069926703
371,4.890,0.0314725083098764
372,4.898,0.0184033797406079
373,4.905,0.0250466757637467
374,4.913,0.0206760862748396
375,4.920,0.0224456420191288
376,4.928,0.014237461759474
377,4.936,0.0181518043456366
378,4.943,0.0237845347991452
379,4.951,0.0220064510753654
380,4.958,0.023673671065768
381,4.966,0.0135125835027772
382,4.973,0.00566257838172549
383,4.981,0.0204842067363022
384,4.988,0.0230596565424484
385,4.996,0.0192476497101724
386,5.003,0.0214691883674607
387,5.011,0.0320566749049791
388,5.018,0.0331354643105337
389,5.026,0.0173331183145438
390,5.033,0.0195290730333605
391,5.041,0.0187658188689563
392,5.049,0.01115459717364
393,5.056,0.0197593284796054
394,5.064,0.0244923570968609
395,5.071,0.0180793165199669
396,5.079,0.0142673096876909
397,5.086,0.0234348876400326
398,5.094,0.0199639999873786
399,5.101,0.0174695659863926
400,5.109,0.0263130807180934
401,5.116,0.0223049303575347
402,5.124,0.0277500452622511
403,5.131,0.00611882528446994
404,5.139,0.0369090952351023
405,5.147,0.0343848133058994
406,5.154,0.01208414693811
407,5.162,0.0213583246340836
408,5.169,0.0259122656820375
409,5.177,0.030815853889104
410,5.184,0.00829346005456031
411,5.192,0.0141052780773704
412,5.199,0.0242194617531633
413,5.207,0.0227867611987508
414,5.214,0.0246458607276908
415,5.222,0.0282404040829578
416,5.229,0.0185696753406736
417,5.237,0.0161775770935742
418,5.244,0.0178703810224485
419,5.252,0.0190770901203613
420,5.260,0.0266030320207721
421,5.267,0.0312891567508296
422,5.275,0.0105064707323581
423,5.282,0.0152778752573211
424,5.290,0.0283768517548066
425,5.297,0.0146595967442562
426,5.305,0.0216951798239603
427,5.312,0.0198360802950203
428,5.320,0.0219893951163843
429,5.327,0.0249869799073128
430,5.335,0.0219296992599505
431,5.342,0.0257672900306982
432,5.350,0.02587388977433
433,5.358,0.0192092738024649
434,5.365,0.0275325817852421
435,5.373,0.0249955078868033
436,5.380,0.011913587348299
437,5.388,0.0186592191253244
438,5.395,0.00946605723451099
439,5.403,0.0228507210449299
440,5.410,0.00796939683391939
441,5.418,0.0173032703863269
442,5.425,0.0177424613300902
443,5.433,0.0166423519758092
444,5.440,0.0185696753406736
445,5.448,0.0135509594104847
446,5.455,0.0207698940492356
447,5.463,0.0246160127994739
448,5.471,0.0348453241983891
449,5.478,0.0431302562734589
450,5.486,0.0389728662718155
451,5.493,0.0340522221057679
452,5.501,0.032674953418044
453,5.508,0.0263770405642725
454,5.516,0.0256265783691041
455,5.523,0.00672004783855375
456,5.531,0.0215118282649135
457,5.538,0.0187914028074279
458,5.546,0.0294726971193423
459,5.553,0.0192561776896629
460,5.561,0.0264367364207064
461,5.568,0.0240361101941164
462,5.576,0.011572468168677
463,5.584,0.0173885501812324
464,5.591,0.0124508500562036
465,5.599,0.0102634233168775
466,5.606,0.0205652225414624
467,5.614,0.0282361400932125
468,5.621,0.0613460204652746
469,5.629,0.0593675292234669
470,5.636,0.0492149696399666
471,5.644,0.0459743374335574
472,5.651,0.027003847056828
473,5.659,0.0299587919503037
474,5.666,0.0208722298031222
475,5.674,0.0195034890948889
476,5.682,0.0248206843072471
477,5.689,0.0287734028011172
478,5.697,0.0297200085245683
479,5.704,0.0340778060442396
480,5.712,0.0355446185166143
481,5.719,0.0174056061402135
482,5.727,0.0350372037369265
483,5.734,0.0428616249195065
484,5.742,0.0349220760138041
485,5.749,0.0302615352222182
486,5.757,0.0296517846886439
487,5.764,0.0271957265953654
488,5.772,0.0347003485470498
489,5.779,0.0347429884445025
490,5.787,0.0178192131455052
491,5.795,0.0266371439387343
492,5.802,0.0202283673515857
493,5.810,0.0160795053294329
494,5.817,0.0165016403142151
495,5.825,0.0162116890115364
496,5.832,0.0119903391637139
497,5.840,0.00979864843464246
498,5.847,0.0239721503479373
499,5.855,0.0140242622722102
500,5.862,0.0193840973820212
501,5.870,0.0212048210032537
502,5.877,0.0257075941742643
503,5.885,0.0212730448391781
504,5.893,0.0218742673932619
505,5.900,0.0177765732480524
506,5.908,0.0234306236502873
507,5.915,0.00984981631158576
508,5.923,0.0101355036245192
509,5.930,0.0218188355265733
510,5.938,0.015631786406179
511,5.945,0.0148131003750861
512,5.953,0.0280314685854393
513,5.960,0.0354209628140013
514,5.968,0.0328924168950531
515,5.975,0.02455631694304
516,5.983,0.0256137863998683
517,5.990,0.0235969192503531
518,5.998,0.0237802708093999
519,6.006,0.0264282084412158
520,6.013,0.0306069183915855
521,6.021,0.0241427099377483
522,6.028,0.0240958060505503
523,6.036,0.0287606108318814
524,6.043,0.0208338538954147
525,6.051,0.0165869201091206
526,6.058,0.0227654412500244
527,6.066,0.0265603921233194
528,6.073,0.0314256044226784
529,6.081,0.0259549055794903
530,6.088,0.0363803605066882
531,6.096,0.0298948321041246
532,6.104,0.0158705698319144
533,6.111,0.014408021349285
534,6.119,0.0274984698672799
535,6.126,0.0385507312870333
536,6.134,0.0564850721556609
537,6.141,0.0712683246025301
538,6.149,0.0583356437051103
539,6.156,0.0404652626826619
540,6.164,0.0328199290693834
541,6.171,0.0389302263743628
542,6.179,0.0368621913479043
543,6.186,0.0311313891302544
544,6.194,0.0366191439324236
545,6.201,0.0386360110819388
546,6.209,0.0254645467587836
547,6.217,0.0410963331649626
548,6.224,0.0295409209552667
549,6.232,0.0322656104024976
550,6.239,0.0284152276625141
551,6.247,0.0345724288546915
552,6.254,0.0179727167763351
553,6.262,0.0235969192503531
554,6.269,0.019490697125653
555,6.277,0.0223816821729496
556,6.284,0.0255924664511419
557,6.292,0.0180921084892028
558,6.299,0.0102634233168775
559,6.307,0.0171113908477895
560,6.314,0.0219169072907146
561,6.322,0.0151158436470007
562,6.330,0.0254816027177647
563,6.337,0.0214009645315363
564,6.345,0.023673671065768
565,6.352,0.0222068585933934
566,6.360,0.0177467253198355
567,6.367,0.0235969192503531
568,6.375,0.0149580760264255
569,6.382,0.0257758180101887
570,6.390,0.0309565655506981
571,6.397,0.0236949910144944
572,6.405,0.0334083596542314
573,6.412,0.0217932515881017
574,6.420,0.0225351858037795
575,6.428,0.0228549850346752
576,6.435,0.0149452840571897
577,6.443,0.028398171703533
578,6.450,0.0300184878067376
579,6.458,0.0153972669701888
580,6.465,0.0324958658487425
581,6.473,0.0306666142480194
582,6.480,0.0278438530366472
583,6.488,0.0323551541871484
584,6.495,0.0113422127224321
585,6.503,0.0341161819519471
586,6.510,0.0311655010482166
587,6.518,0.0332036881464582
588,6.525,0.0277457812725059
589,6.533,0.0273364382569594
590,6.541,0.0236651430862775
591,6.548,0.0313914925047162
592,6.556,0.0177808372377977
593,6.563,0.0190685621408708
594,6.571,0.0225650337319965
595,6.578,0.0178277411249957
596,6.586,0.030086711642662
597,6.593,0.026927095241413
598,6.601,0.031698499766376
599,6.608,0.0188468346741165
600,6.616,0.0292083297551353
601,6.623,0.0313659085662445
602,6.631,0.0225010738858173
603,6.639,0.0131927842718815
604,6.646,0.0192433857204271
605,6.654,0.029250969652588
606,6.661,0.0207571020799998
607,6.669,0.0194651131871814
608,6.676,0.0194864331359078
609,6.684,0.0146126928570582
610,6.691,0.0224584339883646
611,6.699,0.0273236462877236
612,6.706,0.0128346091332784
613,6.714,0.0150177718828593
614,6.721,0.0153460990932455
615,6.729,0.0219296992599505
616,6.736,0.0164888483449793
617,6.744,0.0123868902100245
618,6.752,0.0105320546708298
619,6.759,0.0173459102837796
620,6.767,0.0257161221537549
621,6.774,0.0361714250091697
622,6.782,0.0185696753406736
623,6.789,0.0267778556003284
624,6.797,0.0282958359496464
625,6.804,0.00889894659838939
626,6.812,0.0297328004938041
627,6.819,0.0330501845156282
628,6.827,0.0161562571448478
629,6.834,0.0274302460313555
630,6.842,0.035045731716417
631,6.850,0.0233879837528346
632,6.857,0.0246671806764172
633,6.865,0.0326152575616102
634,6.872,0.0248292122867376
635,6.880,0.0390538820769758
636,6.887,0.0223177223267705
637,6.895,0.0267309517131304
638,6.902,0.0353996428652749
639,6.910,0.0343848133058994
640,6.917,0.0399621118927194
641,6.925,0.015167011523944
642,6.932,0.0389472823333439
643,6.940,0.0251276915689069
644,6.947,0.0133249679539851
645,6.955,0.0231961042142972
646,6.963,0.0201175036182085
647,6.970,0.0192135377922102
648,6.978,0.0226972174141
649,6.985,0.0252641392407557
650,6.993,0.0291401059192109
651,7.000,0.0254901306972553
652,7.008,0.0327730251821854
653,7.015,0.0379281887842231
654,7.023,0.0602544390904842
655,7.030,0.153665662440228
656,7.038,0.141824562917599
657,7.045,0.100271982849892
658,7.053,0.0670256548059812
659,7.061,0.0550267876627767
660,7.068,0.0533339837339025
661,7.076,0.0285388833651271
662,7.083,0.0417146116780275
663,7.091,0.0328156650796381
664,7.098,0.0347003485470498
665,7.106,0.0432624399555624
666,7.113,0.035510506598652
667,7.121,0.0439276223558253
668,7.128,0.0385891071947408
669,7.136,0.0347557804137383
670,7.143,0.0321334267203941
671,7.151,0.0512318367894818
672,7.158,0.0511934608817743
673,7.166,0.0874373737166137
674,7.174,0.0929677684162357
675,7.181,0.0736646868393747
676,7.189,0.0563912643812648
677,7.196,0.0572483263200651
678,7.204,0.0443156454226454
679,7.211,0.0543999811702213
680,7.219,0.0478590209009691
681,7.226,0.108753058453245
682,7.234,0.209263824728872
683,7.241,0.199964063094427
684,7.249,0.138166059716153
685,7.256,0.10867630663783
686,7.264,0.0834420153252908
687,7.271,0.0821841383504346
688,7.279,0.0594357530593913
689,7.287,0.062808568947904
690,7.294,0.0551376513961539
691,7.302,0.0602459111109936
692,7.309,0.0618747551936887
693,7.317,0.0454370747256528
694,7.324,0.0374506219327523
