#"+EI TIC Scan ACE-Blank.d "
#Point,X(Minutes),Y(Counts)
0,2.095,0.0741439246771926
1,2.102,0.0651811602312772
2,2.110,0.0700505818864234
3,2.117,0.061807110046516
4,2.125,0.0492194894413761
5,2.132,0.0467114296967429
6,2.140,0.0489876122197024
7,2.147,0.046408569652108
8,2.155,0.0369536576336608
9,2.162,0.04928574007614
10,2.170,0.0530005078111155
11,2.178,0.0504877158782849
12,2.185,0.0399112752570489
13,2.193,0.0386903707021143
14,2.200,0.0350418536019027
15,2.208,0.0337972881059809
16,2.215,0.041226823575932
17,2.223,0.0415628089379489
18,2.230,0.0420123668167038
19,2.238,0.0514057603885846
20,2.245,0.0440235468006078
21,2.253,0.0376066996049049
22,2.260,0.0248203270954733
23,2.268,0.033044870182591
24,2.276,0.0436023820510373
25,2.283,0.0259465878864595
26,2.291,0.0143621911791728
27,2.298,0.023996926349122
28,2.306,0.0283883969963287
29,2.313,0.0342941678667102
30,2.321,0.0268504358321669
31,2.328,0.0344124725716457
32,2.336,0.0240773735484782
33,2.343,0.0389506410529724
34,2.351,0.0303711838510481
35,2.358,0.0241246954304524
36,2.366,0.0335701430725047
37,2.373,0.0237129950572767
38,2.381,0.0360829350053353
39,2.389,0.162101106702657
40,2.396,0.271296349358147
41,2.404,0.0896938950939181
42,2.411,0.0282133060330241
43,2.419,0.0299452869132802
44,2.426,0.0353163205173531
45,2.434,0.0287338467347405
46,2.441,0.0202726942377517
47,2.449,0.0227854861705822
48,2.456,0.0236751375516974
49,2.464,0.0326047766802309
50,2.471,0.0141350461456966
51,2.479,0.0269214186551282
52,2.486,0.0228990586873203
53,2.494,0.0218059232137161
54,2.502,0.0307166335894599
55,2.509,0.0388323363480369
56,2.517,0.0185075880401136
57,2.524,0.0184318730289549
58,2.532,0.0320037887791584
59,2.539,0.0350087282845207
60,2.547,0.0371571417261499
61,2.554,0.0258803372516956
62,2.562,0.0321599509896733
63,2.569,0.0249433639886062
64,2.577,0.0319280737679996
65,2.584,0.0301724319467564
66,2.592,0.0241530885596369
67,2.600,0.0218911026012697
68,2.607,0.0294626037171433
69,2.615,0.0336363937072686
70,2.622,0.0188199124611434
71,2.630,0.0301771641349539
72,2.637,0.0254686368785199
73,2.645,0.0180816911023457
74,2.652,0.0278962494237969
75,2.660,0.034989799531731
76,2.667,0.0183183005122168
77,2.675,0.0269498117843127
78,2.682,0.0199887629459064
79,2.690,0.00869302971866242
80,2.697,0.0256957819119962
81,2.705,0.0265239148465448
82,2.713,0.0311094052098458
83,2.720,0.0458832967621942
84,2.728,0.0290225102147831
85,2.735,0.0398686855632721
86,2.743,0.0345591704057657
87,2.750,0.0324391500933211
88,2.758,0.0299405547250828
89,2.765,0.0492384181941657
90,2.773,0.0493235975817193
91,2.780,0.0299026972195034
92,2.788,0.0267889173856004
93,2.795,0.0352406055061944
94,2.803,0.0462050855596189
95,2.811,0.035562394303619
96,2.818,0.0289609917682167
97,2.826,0.0220661935645742
98,2.833,0.0249102386712243
99,2.841,0.031876019697828
100,2.848,0.0187205365089976
101,2.856,0.0272574040171451
102,2.863,0.0370719623385963
103,2.871,0.0142722796034218
104,2.878,0.0258472119343136
105,2.886,0.0424335315662743
106,2.893,0.0256721209710091
107,2.901,0.040867177272928
108,2.908,0.0344929197710018
109,2.916,0.0412410201405242
110,2.924,0.0154979163465539
111,2.931,0.0334471061793718
112,2.939,0.0367785666703562
113,2.946,0.0339203249991139
114,2.954,0.688992404979909
115,2.961,13.244784312304
116,2.969,56.5659324187686
117,2.976,100
118,2.984,18.3426239595515
119,2.991,0.188341090257357
120,2.999,0.0906923868035739
121,3.006,0.0799550517836256
122,3.014,0.0716831868145337
123,3.022,0.0606713848791349
124,3.029,0.0615894293894346
125,3.037,0.0783366434201076
126,3.044,0.0472934888450257
127,3.052,0.0466120537445971
128,3.059,0.0519594264076828
129,3.067,0.0468675919072578
130,3.074,0.0442554240222814
131,3.082,0.0478992089342956
132,3.089,0.0382692059525438
133,3.097,0.0405785137928853
134,3.104,0.0377817905682094
135,3.112,0.0453816848132676
136,3.119,0.0580781457469482
137,3.127,0.0763538565653882
138,3.135,0.0431338954194926
139,3.142,0.0256011381480477
140,3.150,0.0436402395566167
141,3.157,0.0515619225990995
142,3.165,0.0440661364943846
143,3.172,0.036698119471
144,3.180,0.0485427865291449
145,3.187,0.0454668642008212
146,3.195,0.0222838742216556
147,3.202,0.0360971315699276
148,3.210,0.03475319012186
149,3.217,0.0300872525592029
150,3.225,0.0340764872096288
151,3.232,0.0291266183551264
152,3.240,0.0362343650276528
153,3.248,0.0515287972817175
154,3.255,0.0417047745838715
155,3.263,0.0471420588227082
156,3.270,0.0249575605531985
157,3.278,0.0277069618959001
158,3.285,0.0118635958109345
159,3.293,0.0206086795997686
160,3.300,0.0193972394212288
161,3.308,0.0289325986390321
162,3.315,0.0548318646435174
163,3.323,0.0315400343358111
164,3.330,0.0276075859437542
165,3.338,0.0242240713825982
166,3.346,0.020523500212215
167,3.353,0.0219431566714413
168,3.361,0.0181195486079251
169,3.368,0.0221703017049175
170,3.376,0.0277684803424666
171,3.383,0.0285776845242256
172,3.391,0.0215787781802399
173,3.398,0.013600308879388
174,3.406,0.0157203291918326
175,3.413,0.0143054049208038
176,3.421,0.0217018150733728
177,3.428,0.019501347561572
178,3.436,0.0285398270186462
179,3.443,0.0231593290381785
180,3.451,0.0198326007353915
181,3.459,0.0177504379285263
182,3.466,0.010453403728103
183,3.474,0.0151855919255241
184,3.481,0.029088760849547
185,3.489,0.0803288946512219
186,3.496,0.0349756029671388
187,3.504,0.0240584447956885
188,3.511,0.0214604734753043
189,3.519,0.0251941699630695
190,3.526,0.022108783258351
191,3.534,0.0178356173160798
192,3.541,0.0104486715399056
193,3.549,0.0138558470420488
194,3.557,0.0191227725057784
195,3.564,0.0228517368053461
196,3.572,0.0106190303150128
197,3.579,0.0135861123147958
198,3.587,0.0166052483847504
199,3.594,0.0262163226137125
200,3.602,0.0178592782570669
201,3.609,0.0133778960341092
202,3.617,0.0234669212710109
203,3.624,0.0305415426261553
204,3.632,0.0117926129879732
205,3.639,0.0211292203014849
206,3.647,0.0182378533128606
207,3.654,0.0185549099220878
208,3.662,0.00743426765814843
209,3.670,0.0189003596604996
210,3.677,0.010723138455356
211,3.685,0.00687113726265533
212,3.692,0.0144379061903315
213,3.700,0.0275507996853852
214,3.707,0.0237887100684355
215,3.715,0.0104013496579314
216,3.722,0.0136665595141519
217,3.730,0.00813463151136674
218,3.737,0.0243707692167183
219,3.745,0.0158197051439785
220,3.752,0.0219005669776645
221,3.760,0.0157250613800301
222,3.768,0.0223879823619989
223,3.775,0.0168040002890421
224,3.783,0.015848098273163
225,3.790,0.0158954201551372
226,3.798,0.0191984875169371
227,3.805,0.0190754506238041
228,3.813,0.0161131008122186
229,3.820,0.0228801299345306
230,3.828,0.00859365376651658
231,3.835,0.0228848621227281
232,3.843,0.0125166377821786
233,3.850,0.0136097732557829
234,3.858,0.0209872546555622
235,3.865,0.00349708707789414
236,3.873,0.00694212008561664
237,3.881,0.0174617744484836
238,3.888,0.0261406076025537
239,3.896,0.0188293768375383
240,3.903,0.00866463658947789
241,3.911,0.0171210568982693
242,3.918,0.0142438864742373
243,3.926,0.0213610975231585
244,3.933,0.0158859557787424
245,3.941,0.0313980686898885
246,3.948,0.0227145033476209
247,3.956,0.0205093036476227
248,3.963,0.0243423760875337
249,3.971,0.0708692504445772
250,3.979,0.0283079497969726
251,3.986,0.0208547533860345
252,3.994,0.0136996848315339
253,4.001,0.011745291105999
254,4.009,0.0123604755716637
255,4.016,0.0176794551055649
256,4.024,0.0267652564446133
257,4.031,0.0110685881937678
258,4.039,0.0272100821351709
259,4.046,0.0156256854278842
260,4.054,0.0177740988695134
261,4.061,0.0224636973731576
262,4.069,0.0177409735521314
263,4.076,0.0247588086489068
264,4.084,0.0207553774338886
265,4.092,0.0149679112684427
266,4.099,0.00689479820364243
267,4.107,0.00781757490213953
268,4.114,0.0125261021585734
269,4.122,0.00825293621630226
270,4.129,0.0300683238064132
271,4.137,0.0168418577946214
272,4.144,0.0254686368785199
273,4.152,0.0165437299381839
274,4.159,0.0180816911023457
275,4.167,0.0207885027512706
276,4.174,0.0130513750484872
277,4.182,0.0126538712399038
278,4.189,0.0239306757143581
279,4.197,0.0227996827351745
280,4.205,0.022288606409853
281,4.212,0.00435361314162734
282,4.220,0.00656827721802038
283,4.227,0.0127769081330368
284,4.235,0.0121285983499901
285,4.242,0.0155830957341074
286,4.250,0.0195723303845334
287,4.257,0.0347389935572677
288,4.265,0.0159285454725192
289,4.272,0.0172819512969816
290,4.280,0.0172630225441919
291,4.287,0.0227003067830286
292,4.295,0.0239827297845297
293,4.303,0.0212948468883946
294,4.310,0.0175895435298139
295,4.318,0.0110591238173729
296,4.325,0.0122090455493462
297,4.333,0.00344503300772251
298,4.340,0.013510397303637
299,4.348,0.021512527545476
300,4.355,0.0116411829656557
301,4.363,0.00790275428969311
302,4.370,0.0241294276186498
303,4.378,0.0115370748253125
304,4.385,0.025255688409636
305,4.393,0.00460441911609066
306,4.400,0.0182331211246632
307,4.408,0.01003697116673
308,4.416,0.0606855814437272
309,4.423,0.109427119877164
310,4.431,0.0524988958621888
311,4.438,0.0211481490542746
312,4.446,0.0265239148465448
313,4.453,0.0232255796729424
314,4.461,0.0252935459152154
315,4.468,0.00260743569677898
316,4.476,0.0203152839315285
317,4.483,0.0256058703362452
318,4.491,0.00764248393883495
319,4.498,0.0179113323272386
320,4.506,0.0114235023085744
321,4.514,0.0155972922986997
322,4.521,0.0153559507006312
323,4.529,0.0340197009512597
324,4.536,0.0273094580873167
325,4.544,0.0232492406139295
326,4.551,0.0204430530128588
327,4.559,0.00481263539677718
328,4.566,0.0146934443529923
329,4.574,0.0202348367321723
330,4.581,0.0188908952841047
331,4.589,0.0172204328504151
332,4.596,0.00851320656716042
333,4.604,0.0218769060366774
334,4.611,0.0204714461420433
335,4.619,0.0196906350894689
336,4.627,0.0080352555592209
337,4.634,0.0175942757180114
338,4.642,0.0138795079830359
339,4.649,0.0060098790107247
340,4.657,0.0268882933377463
341,4.664,0.00761882299784785
342,4.672,0.0215977069330296
343,4.679,0.0180722267259509
344,4.687,0.00654461627703328
345,4.694,0.013690220455139
346,4.702,0.0178640104452644
347,4.709,0.0154600588409745
348,4.717,0.00868356534226758
349,4.725,0.0168040002890421
350,4.732,0.00737274921158195
351,4.740,0.0117594876705912
352,4.747,0.0116885048476299
353,4.755,0.0255443518896787
354,4.762,0.0113383229210208
355,4.770,0.0170122165697286
356,4.777,0.0131554831888304
357,4.785,0.0256673887828116
358,4.792,0.00516754951158376
359,4.800,0.0144284418139367
360,4.807,0.00955902015879047
361,4.815,0.0152565747484854
362,4.822,0.0200597457688677
363,4.830,0.0155121129111461
364,4.838,0.0180674945377535
365,4.845,0.019084915000199
366,4.853,0.0203152839315285
367,4.860,0.0149726434566401
368,4.868,0.0152802356894725
369,4.875,0.0163402458456948
370,4.883,0.0171352534628615
371,4.890,0.0228801299345306
372,4.898,0.0257431037939704
373,4.905,0.017736241363934
374,4.913,0.000705096041415732
375,4.920,0.0148164812461252
376,4.928,0.00920883823218131
377,4.935,0.0232823659313114
378,4.943,0.0213137756411843
379,4.951,0.0070225672849728
380,4.958,0.0189287527896841
381,4.966,0.0065493484652307
382,4.973,0.0143054049208038
383,4.981,0.0236514766107103
384,4.988,0.0109786766180168
385,4.996,0.0205282324004124
386,5.003,0.0070462282259599
387,5.011,0.00661086691179717
388,5.018,0.0163213170929051
389,5.026,0.023850228515002
390,5.033,0.0185596421102853
391,5.041,0.00198751904291683
392,5.049,0.0197095638422586
393,5.056,0.0164301574214458
394,5.064,0.0187158043208001
395,5.071,0.017972850773805
396,5.079,0.00843749155600168
397,5.086,0.0175942757180114
398,5.094,0.0171589144038486
399,5.101,0.0207317164929015
400,5.109,0.0139457586177998
401,5.116,0.0103161702703778
402,5.124,0.00510129887681986
403,5.131,0.0174428456956939
404,5.139,0.0257099784765884
405,5.146,0.0143811199319625
406,5.154,0.0211576134306694
407,5.162,0.0161698870705876
408,5.169,0.0197994754180096
409,5.177,0.0123462790070714
410,5.184,0.0152092528665112
411,5.192,0.0216686897559909
412,5.199,0.0149158571982711
413,5.207,0.0146555868474129
414,5.214,0.00581585929463044
415,5.222,0.00944071545385494
416,5.229,0.00826713278089453
417,5.237,0.0350181926609156
418,5.244,0.0282416991622087
419,5.252,0.0185217846047059
420,5.260,0.0095448235941982
421,5.267,0.012824230015011
422,5.275,0.024896042106632
423,5.282,0.038619387879153
424,5.290,0.0125119055939812
425,5.297,0.0208168958804551
426,5.305,0.0108840328540684
427,5.312,0.0200076916986961
428,5.320,0.0329218332894581
429,5.327,0.0329029045366684
430,5.335,0.0104770646690901
431,5.342,0.0215361884864631
432,5.350,0.0132832522701608
433,5.357,0.0207648418102835
434,5.365,0.0169033762411879
435,5.373,0.0102499196356139
436,5.380,0.0125261021585734
437,5.388,0.0173955238137197
438,5.395,0.00829079372188163
439,5.403,0.0245931820619971
440,5.410,0.0250143468115675
441,5.418,0.0191464334467655
442,5.425,0.0138558470420488
443,5.433,0.0147360340467691
444,5.440,0.00718819387188253
445,5.448,0.0198231363589967
446,5.455,0.0300351984890312
447,5.463,0.0196385810192972
448,5.471,0.0225630733253034
449,5.478,0.034573366970358
450,5.486,0.029268584001049
451,5.493,0.020850021197837
452,5.501,0.0120812764680159
453,5.508,0.0345970279113451
454,5.516,0.0205518933413995
455,5.523,0.021839048531098
456,5.531,0.023310759060496
457,5.538,0.0171447178392564
458,5.546,0.0208642177624293
459,5.553,0.0236041547287361
460,5.561,0.0199698341931167
461,5.568,0.0206560014817428
462,5.576,0.0124361905828224
463,5.584,0.0185974996158646
464,5.591,0.00940759013647299
465,5.599,0.0322262016244372
466,5.606,0.0185738386748775
467,5.614,0.0228470046171487
468,5.621,0.0322924522592011
469,5.629,0.0458880289503917
470,5.636,0.039755113046534
471,5.644,0.027740087213282
472,5.651,0.0371098198441757
473,5.659,0.0348904235795852
474,5.666,0.0217869944609264
475,5.674,0.020433588636464
476,5.681,0.0308917245527644
477,5.689,0.00473218819742102
478,5.697,0.00779391396115243
479,5.704,0.00821034652252547
480,5.712,0.0258992660044853
481,5.719,0.0282842888559855
482,5.727,0.0508095046757095
483,5.734,0.0455425792119799
484,5.742,0.0358652543482539
485,5.749,0.0209493971499829
486,5.757,0.0239354079025555
487,5.764,0.027323654651909
488,5.772,0.0263156985658583
489,5.779,0.0283505394907494
490,5.787,0.0187110721326027
491,5.795,0.0307166335894599
492,5.802,0.0310478867632793
493,5.810,0.0255490840778761
494,5.817,0.0235237075293799
495,5.825,0.0248345236600655
496,5.832,0.0272763327699348
497,5.840,0.0191937553287397
498,5.847,0.0140593311345379
499,5.855,0.0286865248527662
500,5.862,0.0251468480810953
501,5.870,0.0110875169465575
502,5.877,0.0290177780265857
503,5.885,0.013600308879388
504,5.892,0.0219005669776645
505,5.900,0.02022064016758
506,5.908,0.0182709786302426
507,5.915,0.0124219940182302
508,5.923,0.0197805466652199
509,5.930,0.0143337980499883
510,5.938,0.0160231892364676
511,5.945,0.0173671306845352
512,5.953,0.0223122673508401
513,5.960,0.010813050031107
514,5.968,0.0322451303772269
515,5.975,0.033943985940101
516,5.983,0.0169506981231621
517,5.990,0.0175706147770243
518,5.998,0.0109976053708065
519,6.006,0.0221466407639304
520,6.013,0.0211386846778797
521,6.021,0.0344124725716457
522,6.028,0.0172062362858228
523,6.036,0.0398734177514695
524,6.043,0.0173813272491274
525,6.051,0.0176274010353933
526,6.058,0.0274656202978316
527,6.066,0.0380278643544753
528,6.073,0.0301913606995461
529,6.081,0.033764162788599
530,6.088,0.0288758123806631
531,6.096,0.0321883441188578
532,6.103,0.0259465878864595
533,6.111,0.0259891775802363
534,6.119,0.0294720680935381
535,6.126,0.03655142163688
536,6.134,0.0531566700216304
537,6.141,0.0663358141514479
538,6.149,0.0449794488164868
539,6.156,0.0416243273845153
540,6.164,0.0287338467347405
541,6.171,0.0267557920682185
542,6.179,0.0414823617385927
543,6.186,0.0289941170855986
544,6.194,0.030200825075941
545,6.201,0.0197994754180096
546,6.209,0.0213137756411843
547,6.217,0.0220898545055613
548,6.224,0.0255585484542709
549,6.232,0.0395137714484655
550,6.239,0.0256910497237987
551,6.247,0.03115672709182
552,6.254,0.0319422703325919
553,6.262,0.0204146598836743
554,6.269,0.0169980200051363
555,6.277,0.0166099805729478
556,6.284,0.0254071184319535
557,6.292,0.0231356680971914
558,6.299,0.0310147614458974
559,6.307,0.00636006093733386
560,6.314,0.0282275025976164
561,6.322,0.0167756071598575
562,6.330,0.0246878258259455
563,6.337,0.0201922470383955
564,6.345,0.0221655695167201
565,6.352,0.00792168304248279
566,6.360,0.0204667139538459
567,6.367,0.022861201181741
568,6.375,0.0296140337394608
569,6.382,0.0237981744448303
570,6.390,0.00897222882231026
571,6.397,0.0148164812461252
572,6.405,0.0186211605568517
573,6.412,0.0132311981999892
574,6.420,0.0159285454725192
575,6.428,0.024929167424014
576,6.435,0.0226056630190802
577,6.443,0.00968205705192341
578,6.450,0.022198694834102
579,6.458,0.0225204836315267
580,6.465,0.0155641669813177
581,6.473,0.0245979142501945
582,6.480,0.0271911533823812
583,6.488,0.0195628660081385
584,6.495,0.0183277648886116
585,6.503,0.0207269843047041
586,6.510,0.0122232421139385
587,6.518,0.0143621911791728
588,6.525,0.0120008292686597
589,6.533,0.0163165849047077
590,6.541,0.0260128385212234
591,6.548,0.0285776845242256
592,6.556,0.0329218332894581
593,6.563,0.0221703017049175
594,6.571,0.0176557941645778
595,6.578,0.0250380077525546
596,6.586,0.0206086795997686
597,6.593,0.0163591745984845
598,6.601,0.0295619796692891
599,6.608,0.0251941699630695
600,6.616,0.0269592761607076
601,6.623,0.0211008271723003
602,6.631,0.0159853317308882
603,6.638,0.0254213149965457
604,6.646,0.0269687405371024
605,6.654,0.0242619288881776
606,6.661,0.019534472878954
607,6.669,0.0225110192551318
608,6.676,0.028942063015427
609,6.684,0.0212901147001972
610,6.691,0.0276170503201491
611,6.699,0.0248013983426836
612,6.706,0.0289941170855986
613,6.714,0.0209446649617854
614,6.721,0.024806130530881
615,6.729,0.0159048845315321
616,6.736,0.0307639554714341
617,6.744,0.023400670636247
618,6.752,0.0299926087952544
619,6.759,0.0221892304577072
620,6.767,0.0133353063403324
621,6.774,0.0250238111879624
622,6.782,0.0154458622763822
623,6.789,0.027593389379162
624,6.797,0.0274324949804497
625,6.804,0.0192032197051345
626,6.812,0
627,6.819,0.0158433660849656
628,6.827,0.0282558957268009
629,6.834,0.02187217384848
630,6.842,0.00952589484140852
631,6.849,0.0316867321699312
632,6.857,0.0179018679508437
633,6.865,0.0198136719826018
634,6.872,0.0217349403907548
635,6.880,0.0282748244795906
636,6.887,0.02456952112101
637,6.895,0.0337925559177835
638,6.902,0.0310289580104896
639,6.910,0.0353210527055505
640,6.917,0.0318097690630641
641,6.925,0.0188341090257357
642,6.932,0.0261169466615666
643,6.940,0.0271911533823812
644,6.947,0.037000979515635
645,6.955,0.0301724319467564
646,6.963,0.0240489804192936
647,6.970,0.0265381114111371
648,6.978,0.0226624492774493
649,6.985,0.0195392050671514
650,6.993,0.0361349890755069
651,7.000,0.0298553753375292
652,7.008,0.025165776833885
653,7.015,0.0279814288113505
654,7.023,0.0561048232686236
655,7.030,0.134990400519632
656,7.038,0.136201840698172
657,7.045,0.0946153708192359
658,7.053,0.0763585887535856
659,7.060,0.0589441361870763
660,7.068,0.0469291103538243
661,7.076,0.0520493379834338
662,7.083,0.0558634816705552
663,7.091,0.031819233439459
664,7.098,0.0387518891486808
665,7.106,0.0535731025830034
666,7.113,0.0299358225368854
667,7.121,0.0383827784692819
668,7.128,0.0397645774229289
669,7.136,0.0453059698021089
670,7.143,0.0543302526945908
671,7.151,0.0320700394139223
672,7.158,0.0603164707643284
673,7.166,0.0966928014379038
674,7.174,0.0940143829181635
675,7.181,0.0784502159368457
676,7.189,0.0484244818242093
677,7.196,0.0544911470933031
678,7.204,0.0470190219295753
679,7.211,0.045509453894598
680,7.219,0.0560764301394391
681,7.226,0.102981879552276
682,7.234,0.179719043361656
683,7.241,0.188762255006927
684,7.249,0.147478645172626
685,7.256,0.108239340639611
686,7.264,0.0822596274357696
687,7.271,0.0645328504482305
688,7.279,0.0637331106428663
689,7.287,0.055186778758324
690,7.294,0.0564313442542457
691,7.302,0.0558540172941603
692,7.309,0.037417412077008
693,7.317,0.0373227683130596
