#"+EI TIC Scan ACE-PET.d "
#Point,X(Minutes),Y(Counts)
0,2.095,0.0938195759169763
1,2.102,0.0809422965995597
2,2.110,0.0813763148488051
3,2.117,0.0668345966143795
4,2.125,0.0787806328921531
5,2.132,0.0740232872280944
6,2.140,0.0633582368510063
7,2.147,0.0704415832294674
8,2.155,0.0562496078560843
9,2.162,0.0663837232874936
10,2.170,0.0686718000772047
11,2.178,0.053788766520557
12,2.185,0.0519515630577319
13,2.193,0.0457193981001209
14,2.200,0.0424747956543059
15,2.208,0.050346116912465
16,2.215,0.0465916483680219
17,2.223,0.0485805475296124
18,2.230,0.0431110748352385
19,2.238,0.0491030549364709
20,2.245,0.0504430336088984
21,2.253,0.0355726413604812
22,2.260,0.0367019315624012
23,2.268,0.0505652329217927
24,2.275,0.0301495201296189
25,2.283,0.0404058348739225
26,2.291,0.0364996706307141
27,2.298,0.0464104562833854
28,2.306,0.0370390331152132
29,2.313,0.025244692536205
30,2.321,0.0327283470086303
31,2.328,0.0336933002035546
32,2.336,0.0280384216551341
33,2.343,0.036272127082566
34,2.351,0.0312113900209766
35,2.358,0.0386824031851714
36,2.366,0.0323406802228966
37,2.373,0.0300483896637753
38,2.381,0.0428329660541686
39,2.389,0.170965266277991
40,2.396,0.283076815204426
41,2.404,0.0823623368907801
42,2.411,0.0360361559955976
43,2.419,0.0461702714270069
44,2.426,0.0393144685966939
45,2.434,0.0373634933597947
46,2.441,0.0323701766087676
47,2.449,0.0301495201296189
48,2.456,0.0477420074169926
49,2.464,0.0385475625640467
50,2.471,0.0363311198543081
51,2.479,0.0420787013297519
52,2.486,0.0363226923154878
53,2.494,0.0345065576997134
54,2.502,0.0351259818030054
55,2.509,0.0304950492212512
56,2.517,0.0287210522995783
57,2.524,0.0436040858562259
58,2.532,0.0348141628666543
59,2.539,0.0419480744780372
60,2.547,0.0306846688447079
61,2.554,0.0379829174630866
62,2.562,0.0290918640076714
63,2.569,0.0377258775290675
64,2.577,0.0311355421715939
65,2.584,0.034241090226874
66,2.592,0.0277308164881932
67,2.599,0.0370390331152132
68,2.607,0.0450662638415478
69,2.615,0.037966062385446
70,2.622,0.0253500367714588
71,2.630,0.0328252637050638
72,2.637,0.0321173504441587
73,2.645,0.0351301955724155
74,2.652,0.0210730608201571
75,2.660,0.0328674013991653
76,2.667,0.0301621614378494
77,2.675,0.039799052078861
78,2.682,0.0325892926180954
79,2.690,0.0348478730219355
80,2.697,0.0360361559955976
81,2.705,0.0331118000249539
82,2.713,0.031337803103281
83,2.720,0.0544503283179505
84,2.728,0.0358886740662424
85,2.735,0.0335963835071211
86,2.743,0.0478136414969652
87,2.750,0.0450536225333173
88,2.758,0.0366471525600693
89,2.765,0.0487617396142488
90,2.773,0.0512310084885963
91,2.780,0.0252952577691268
92,2.788,0.0324628795357909
93,2.795,0.0343000829986161
94,2.803,0.0458247423353747
95,2.810,0.0390869250485458
96,2.818,0.0306804550752977
97,2.826,0.0357664747533481
98,2.833,0.0423441688025913
99,2.841,0.0380882616983404
100,2.848,0.0345613367020453
101,2.856,0.0377005949126066
102,2.863,0.0352987463488215
103,2.871,0.0383453016323595
104,2.878,0.0506874322346871
105,2.886,0.0583817751776199
106,2.893,0.159781922263455
107,2.901,0.110173214997766
108,2.908,0.05669205364415
109,2.916,0.0627514540559448
110,2.924,0.0439074772537567
111,2.931,0.0579098330036831
112,2.939,0.0472700652430559
113,2.946,0.0543702666991576
114,2.954,0.823585444983109
115,2.961,13.5314754458811
116,2.969,55.2090090727091
117,2.976,100
118,2.984,18.194264124376
119,2.991,0.194178921958504
120,2.999,0.108150605680894
121,3.006,0.0815111554699299
122,3.014,0.0976625336190325
123,3.021,0.108053688984461
124,3.029,0.0771077664363238
125,3.037,0.0803776514985997
126,3.044,0.0568816732676067
127,3.052,0.0541806470757009
128,3.059,0.0661941036640368
129,3.067,0.0598439531629417
130,3.074,0.0396347150718652
131,3.082,0.0448387202933997
132,3.089,0.0536834222853033
133,3.097,0.0347130324008107
134,3.104,0.04146349099587
135,3.112,0.0435366655456635
136,3.119,0.0487490983060183
137,3.127,0.0655451831748738
138,3.135,0.0517914398201462
139,3.142,0.0264751132039686
140,3.150,0.0371612324281075
141,3.157,0.0569828037334503
142,3.165,0.0546694443272782
143,3.172,0.0523013059187743
144,3.180,0.0465410831351001
145,3.187,0.0326524991592477
146,3.195,0.0337438654364764
147,3.202,0.029277269861718
148,3.210,0.0350459201842125
149,3.217,0.0334657566554065
150,3.225,0.0463598910504636
151,3.232,0.0247685365928581
152,3.240,0.0352692499629504
153,3.248,0.0430731509105471
154,3.255,0.0540205238381152
155,3.263,0.0447670862134272
156,3.270,0.0355220761275594
157,3.278,0.0292688423228977
158,3.285,0.0314178647220739
159,3.293,0.0382020334724144
160,3.300,0.0321594881382602
161,3.308,0.0405912407279691
162,3.315,0.0487743809224792
163,3.323,0.0335584595824298
164,3.330,0.0347635976337325
165,3.338,0.027048185843749
166,3.345,0.0372412940469003
167,3.353,0.0299767555838028
168,3.361,0.033423618961305
169,3.368,0.0198805640770848
170,3.376,0.0227122171207052
171,3.383,0.0211404811307195
172,3.391,0.0368873374164478
173,3.398,0.0113856049462237
174,3.406,0.0268627799897024
175,3.413,0.0320878540582876
176,3.421,0.021886318316316
177,3.428,0.0185153027881964
178,3.436,0.0209635028154932
179,3.443,0.0265804574392224
180,3.451,0.0202555895545881
181,3.459,0.0205294845662479
182,3.466,0.0284555848267389
183,3.474,0.0142636094533557
184,3.481,0.0260790188794146
185,3.489,0.0751020121970927
186,3.496,0.0489850693929867
187,3.504,0.0263571276604845
188,3.511,0.01889875580452
189,3.519,0.0341441735304405
190,3.526,0.0255396563949155
191,3.534,0.0230282498264664
192,3.541,0.0177947482190609
193,3.549,0.0192105747408711
194,3.556,0.0256534281689895
195,3.564,0.0160965991467707
196,3.572,0.0201839554746156
197,3.579,0.0154603199658381
198,3.587,0.0252531200750253
199,3.594,0.0146217798532184
200,3.602,0.0325640100016345
201,3.609,0.0154434648881975
202,3.617,0.0243218770353823
203,3.624,0.0116173622637819
204,3.632,0.0153128380364829
205,3.639,0.0237740870120629
206,3.647,0.0292098495511556
207,3.654,0.0150600118718739
208,3.662,0.0181192084636424
209,3.670,0.0190757341197463
210,3.677,0.0113603223297628
211,3.685,0.00980122764800749
212,3.692,0.0243850835765345
213,3.700,0.0210393506648759
214,3.707,0.0226447968101428
215,3.715,0.0231251665228999
216,3.722,0.0161977296126143
217,3.730,0.0073277450042498
218,3.737,0.0266099538250934
219,3.745,0.0201713141663852
220,3.752,0.0146133523143981
221,3.760,0.0170994762663862
222,3.767,0.0222739851020497
223,3.775,0.0169604218758513
224,3.783,0.0165264036266059
225,3.790,0.024650551049374
226,3.798,0.0179843678425176
227,3.805,0.0153339068835336
228,3.813,0.0233779926875088
229,3.820,0.0188481905715982
230,3.828,0.019716227070089
231,3.835,0.0174407915886083
232,3.843,0.018586936868169
233,3.850,0.0243850835765345
234,3.858,0.0255228013172749
235,3.865,0.0135556961924506
236,3.873,0.0237235217791411
237,3.881,0.0201460315499243
238,3.888,0.00911016946474299
239,3.896,0.0142509681451253
240,3.903,0.018022291767209
241,3.911,0.0196193103736556
242,3.918,0.0300062519696738
243,3.926,0.017065766111105
244,3.933,0.0284640123655592
245,3.941,0.0245409930447101
246,3.948,0.0181107809248221
247,3.956,0.0138169498958799
248,3.963,0.0257124209407316
249,3.971,0.0668851618473013
250,3.978,0.0529628677161677
251,3.986,0.0246674061270146
252,3.994,0.0125696741504756
253,4.001,0.0315527053431987
254,4.009,0.0206348288015016
255,4.016,0.0237445906261918
256,4.024,0.0244440763482766
257,4.031,0.0190041000397738
258,4.039,0.0297871359603461
259,4.046,0.0123126342164565
260,4.054,0.0256492143995794
261,4.061,0.0125991705363467
262,4.069,0.0139728593640554
263,4.076,0.0274316388600726
264,4.084,0.0243598009600736
265,4.091,0.0240353407154921
266,4.099,0.0257629861736534
267,4.107,0.0197415096865499
268,4.114,0.0259188956418289
269,4.122,0.0222360611773584
270,4.129,0.0199606256958777
271,4.137,0.0251435620703614
272,4.144,0.0313715132585622
273,4.152,0.0198763503076747
274,4.159,0.0279288636504702
275,4.167,0.0305708970706339
276,4.174,0.0327704847027318
277,4.182,0.0220422277844915
278,4.189,0.0195729589101439
279,4.197,0.0196108828348353
280,4.205,0.0204747055639159
281,4.212,0.0256576419383997
282,4.220,0.0300188932779043
283,4.227,0.0297702808827055
284,4.235,0.0376289608326341
285,4.242,0.028657845758426
286,4.250,0.0340304017563665
287,4.257,0.0245620618917608
288,4.265,0.0286241356031448
289,4.272,0.0277350302576033
290,4.280,0.0299304041202911
291,4.287,0.0175503495932722
292,4.295,0.0226363692713225
293,4.302,0.030857433390524
294,4.310,0.00701592606789874
295,4.318,0.0254848773925835
296,4.325,0.0251477758397716
297,4.333,0.0288179689960117
298,4.340,0.0241659675672068
299,4.348,0.0231040976758491
300,4.355,0.0166148927842191
301,4.363,0.0218526081610348
302,4.370,0.0164294869301725
303,4.378,0.0181992700824352
304,4.385,0.0348731556383964
305,4.393,0.0261970044228988
306,4.400,0.00650184619986052
307,4.408,0.0231378078311303
308,4.416,0.0762018060131417
309,4.423,0.104429847291732
310,4.431,0.0541005854569081
311,4.438,0.0263739827381251
312,4.446,0.0192063609714609
313,4.453,0.0216461334599374
314,4.461,0.015485602582299
315,4.468,0.0186206470234502
316,4.476,0.0198089299971123
317,4.483,0.0218231117751637
318,4.491,0.0259526057971101
319,4.498,0.019547676293683
320,4.506,0.0235381159250945
321,4.513,0.0215744993799649
322,4.521,0.0223709017984831
323,4.529,0.0222023510220772
324,4.536,0.0297997772685765
325,4.544,0.0216292783822968
326,4.551,0.0269049176838039
327,4.559,0.0254890911619937
328,4.566,0.01438580876625
329,4.574,0.0295258822569168
330,4.581,0.0240058443296211
331,4.589,0.0258683304089071
332,4.596,0.0288432516124726
333,4.604,0.0241828226448474
334,4.611,0.0228091338171387
335,4.619,0.0359982320709063
336,4.627,0.0213132456765356
337,4.634,0.0215155066082228
338,4.642,0.0309037848540357
339,4.649,0.0232305107581536
340,4.657,0.0130121199385413
341,4.664,0.0215450029940939
342,4.672,0.0182329802377164
343,4.679,0.0220885792480031
344,4.687,0.0213216732153559
345,4.694,0.0273136533165884
346,4.702,0.025017148988057
347,4.709,0.0169772769534919
348,4.717,0.0236434601603483
349,4.724,0.0156499395892949
350,4.732,0.0210393506648759
351,4.740,0.0154181822717366
352,4.747,0.0144869392320936
353,4.755,0.014554359542656
354,4.762,0.023297931068716
355,4.770,0.0184225998611732
356,4.777,0.0266647328274254
357,4.785,0.0143352435333282
358,4.792,0.012523322686964
359,4.800,0.0151948524929987
360,4.807,0.0229271193606229
361,4.815,0.0273473634718696
362,4.822,0.0335584595824298
363,4.830,0.0284682261349693
364,4.838,0.0219284560104175
365,4.845,0.0190841616585666
366,4.853,0.0262222870393597
367,4.860,0.0218652494692652
368,4.868,0.0202977272486896
369,4.875,0
370,4.883,0.0257629861736534
371,4.890,0.00231757317558217
372,4.898,0.0268880626061633
373,4.905,0.0296817917250923
374,4.913,0.0332677094931295
375,4.920,0.0161429506102823
376,4.928,0.023946851557879
377,4.935,0.0202471620157678
378,4.943,0.0206811802650132
379,4.951,0.0177315416779087
380,4.958,0.0254680223149429
381,4.966,0.0182877592400484
382,4.973,0.0188734731880591
383,4.981,0.0189577485762621
384,4.988,0.0218062566975231
385,4.996,0.0195350349854526
386,5.003,0.019151581969129
387,5.011,0.0201038938558228
388,5.018,0.0232515796052044
389,5.026,0.0231040976758491
390,5.033,0.0251393483009513
391,5.041,0.0198131437665225
392,5.048,0.0206685389567828
393,5.056,0.0242081052613083
394,5.064,0.0202892997098693
395,5.071,0.0277223889493729
396,5.079,0.0295975163368893
397,5.086,0.0237403768567817
398,5.094,0.0206306150320914
399,5.101,0.0183804621670717
400,5.109,0.0191262993526681
401,5.116,0.0187723427222156
402,5.124,0.017036269725234
403,5.131,0.0287505486854493
404,5.139,0.0283713094385359
405,5.146,0.0236266050827077
406,5.154,0.0172595995039719
407,5.162,0.0248106742869596
408,5.169,0.0164084180831217
409,5.177,0.0206896078038335
410,5.184,0.0185574404822979
411,5.192,0.011309757096841
412,5.199,0.0188650456492388
413,5.207,0.0206601114179625
414,5.214,0.0164421282384029
415,5.222,0.0207275317285249
416,5.229,0.0132143808702285
417,5.237,0.0135767650395013
418,5.244,0.0279077948034194
419,5.252,0.0187512738751648
420,5.259,0.0253036853079471
421,5.267,0.0138801564370321
422,5.275,0.0347509563255021
423,5.282,0.0136104751947825
424,5.290,0.0257166347101418
425,5.297,0.0213553833706371
426,5.305,0.0109263040805174
427,5.312,0.0132354497172792
428,5.320,0.0219958763209798
429,5.327,0.0175672046709128
430,5.335,0.0105807749888851
431,5.342,0.0192695675126132
432,5.350,0.018220338929486
433,5.357,0.00782496979464743
434,5.365,0.0115794383390905
435,5.373,0.0121482972094607
436,5.380,0.0174913568215301
437,5.388,0.0255860078584271
438,5.395,0.0223919706455339
439,5.403,0.0291761393958744
440,5.410,0.0127635075433425
441,5.418,0.0221433582503351
442,5.425,0.0159954686809271
443,5.433,0.0314305060303043
444,5.440,0.0210351368954658
445,5.448,0.018220338929486
446,5.455,0.0258346202536259
447,5.463,0.0225394525748891
448,5.470,0.0267911459097298
449,5.478,0.0449440645286534
450,5.486,0.0245494205835304
451,5.493,0.0196066690654251
452,5.501,0.0275117004788654
453,5.508,0.0280004977304427
454,5.516,0.0240901197178241
455,5.523,0.0286957696831174
456,5.531,0.0191768645855899
457,5.538,0.0170531248028746
458,5.546,0.0277392440270135
459,5.553,0.0196572342983469
460,5.561,0.0193369878231756
461,5.568,0.0130331887855921
462,5.576,0.0120050290495156
463,5.584,0.0191642232773594
464,5.591,0.0162272259984853
465,5.599,0.0117184927296255
466,5.606,0.023635032621528
467,5.614,0.0342200213798232
468,5.621,0.0767411684976408
469,5.629,0.0761891647049112
470,5.636,0.0447418035969663
471,5.644,0.0523602986905164
472,5.651,0.0370095367293421
473,5.659,0.0400855883987512
474,5.666,0.0236013224662468
475,5.674,0.0307942268493718
476,5.681,0.025299471538537
477,5.689,0.0270692546907997
478,5.697,0.0334320465001253
479,5.704,0.0377806565313995
480,5.712,0.023862576169676
481,5.719,0.029757639574475
482,5.727,0.0397484868459392
483,5.734,0.0504725299947694
484,5.742,0.026963910455546
485,5.749,0.0323153976064357
486,5.757,0.0249286598304438
487,5.764,0.017318592275714
488,5.772,0.0353535253511534
489,5.779,0.0268501386814719
490,5.787,0.0317086148113742
491,5.794,0.0215112928388127
492,5.802,0.0260073847994421
493,5.810,0.0250002939104164
494,5.817,0.0210941296672079
495,5.825,0.0192822088208436
496,5.832,0.020563194721529
497,5.840,0.0298377011932679
498,5.847,0.023862576169676
499,5.855,0.0173270198145343
500,5.862,0.0247601090540378
501,5.870,0.0257503448654229
502,5.877,0.0221180756338742
503,5.885,0.0195518900630932
504,5.892,0.0174239365109677
505,5.900,0.0188060528774967
506,5.908,0.0234749093839423
507,5.915,0.0221222894032843
508,5.923,0.0183804621670717
509,5.930,0.0205210570274276
510,5.938,0.0151990662624089
511,5.945,0.0220506553233118
512,5.953,0.0187597014139851
513,5.960,0.0138548738205712
514,5.968,0.0219621661656986
515,5.975,0.0231125252146694
516,5.983,0.0231420216005405
517,5.990,0.0197246546089093
518,5.998,0.0184942339411457
519,6.005,0.0297787084215258
520,6.013,0.0203862164063028
521,6.021,0.0241617537977966
522,6.028,0.0440465316442916
523,6.036,0.0342453039962841
524,6.043,0.0303602086001264
525,6.051,0.0319445858983426
526,6.058,0.0338829198270113
527,6.066,0.0191262993526681
528,6.073,0.0246716198964247
529,6.081,0.0424958645013566
530,6.088,0.0240774784095936
531,6.096,0.030094741127287
532,6.103,0.0154097547329163
533,6.111,0.0208876549661105
534,6.119,0.0349279346407283
535,6.126,0.0409409835890115
536,6.134,0.0643484726623914
537,6.141,0.0701550469095773
538,6.149,0.0566414884112282
539,6.156,0.0430183719082152
540,6.164,0.0338449959023199
541,6.171,0.0249286598304438
542,6.179,0.0335289631965587
543,6.186,0.0333899088060238
544,6.194,0.0223414054126121
545,6.201,0.0487322432283777
546,6.209,0.0396515701495058
547,6.216,0.0321173504441587
548,6.224,0.0332845645707701
549,6.232,0.0304655528353801
550,6.239,0.042702339202454
551,6.247,0.0465368693656899
552,6.254,0.0218399668528043
553,6.262,0.0312408864068476
554,6.269,0.0306383173811962
555,6.277,0.0310765493998518
556,6.284,0.0266183813639137
557,6.292,0.0271956677731042
558,6.299,0.0376963811431965
559,6.307,0.035935025529754
560,6.314,0.0203398649427911
561,6.322,0.0269259865308546
562,6.330,0.0197752198418311
563,6.337,0.0189071833433403
564,6.345,0.0269007039143937
565,6.352,0.0251393483009513
566,6.360,0.0332171442602077
567,6.367,0.0151948524929987
568,6.375,0.0173438748921749
569,6.382,0.0244398625788665
570,6.390,0.0311313284021837
571,6.397,0.0305076905294816
572,6.405,0.0331286551025945
573,6.412,0.0217725465422419
574,6.420,0.034072539450468
575,6.427,0.0285819979090433
576,6.435,0.0251056381456701
577,6.443,0.0288095414571914
578,6.450,0.0230788150593882
579,6.458,0.0373466382821541
580,6.465,0.0269681242249561
581,6.473,0.0240226994072617
582,6.480,0.0299809693532129
583,6.488,0.0281901173538994
584,6.495,0.0260073847994421
585,6.503,0.0141456239098715
586,6.510,0.0217936153892927
587,6.518,0.0296396540309908
588,6.525,0.0321173504441587
589,6.533,0.0301158099743377
590,6.541,0.0398706861588336
591,6.548,0.0408735632784491
592,6.556,0.039348178751975
593,6.563,0.0349237208713182
594,6.571,0.0271408887707723
595,6.578,0.0377343050678878
596,6.586,0.0228512715112402
597,6.593,0.0242797393412808
598,6.601,0.0238204384755745
599,6.608,0.032239549757053
600,6.616,0.0253121128467674
601,6.623,0.0267869321403197
602,6.631,0.0332424268766686
603,6.638,0.0233779926875088
604,6.646,0.0214270174506097
605,6.654,0.0265341059757107
606,6.661,0.0243218770353823
607,6.669,0.0287800450713204
608,6.676,0.0218694632386754
609,6.684,0.019998549620569
610,6.691,0.031337803103281
611,6.699,0.0191052305056174
612,6.706,0.0298334874238577
613,6.714,0.0305329731459425
614,6.721,0.0262433558864104
615,6.729,0.0178158170661116
616,6.736,0.032943249248548
617,6.744,0.018983031192723
618,6.751,0.028177476045669
619,6.759,0.0217683327728318
620,6.767,0.0298377011932679
621,6.774,0.022113861864464
622,6.782,0.0271198199237215
623,6.789,0.0209424339684425
624,6.797,0.0246589785881943
625,6.804,0.0317633938137061
626,6.812,0.0238962863249572
627,6.819,0.0238204384755745
628,6.827,0.0171374001910776
629,6.834,0.0271577438484128
630,6.842,0.0232052281416927
631,6.849,0.0281943311233096
632,6.857,0.0232262969887435
633,6.865,0.0274105700130218
634,6.872,0.0298840526567795
635,6.880,0.0311271146327736
636,6.887,0.0290918640076714
637,6.895,0.0307310203082195
638,6.902,0.0426054225060205
639,6.910,0.0285819979090433
640,6.917,0.0497604029644542
641,6.925,0.0317633938137061
642,6.932,0.0221897097138467
643,6.940,0.0247348264375769
644,6.947,0.029445820638124
645,6.955,0.0217978291587028
646,6.962,0.0389141605027297
647,6.970,0.0334952530412775
648,6.978,0.0173944401250967
649,6.985,0.0299472591979317
650,6.993,0.0272040953119245
651,7.000,0.0379492073078054
652,7.008,0.0223287641043816
653,7.015,0.036921047571729
654,7.023,0.0787764191227429
655,7.030,0.164589833160435
656,7.038,0.134903827665933
657,7.045,0.0847346890686942
658,7.053,0.0532578315748782
659,7.060,0.054774788562532
660,7.068,0.0413623605300265
661,7.076,0.0493938050257712
662,7.083,0.0404521863374342
663,7.091,0.0424326579602044
664,7.098,0.0459511554176791
665,7.106,0.0418258751651429
666,7.113,0.0521875341447003
667,7.121,0.0462545468152099
668,7.128,0.0372707904327714
669,7.136,0.0318645242795497
670,7.143,0.0321342055217993
671,7.151,0.0545556725532042
672,7.158,0.0637880413308415
673,7.166,0.103190999085149
674,7.173,0.0954376633704736
675,7.181,0.0649468279186326
676,7.189,0.0503840408371563
677,7.196,0.0401277260928527
678,7.204,0.0455339922460744
679,7.211,0.0495960659574584
680,7.219,0.0720343880665039
681,7.226,0.128241858228487
682,7.234,0.250870975602654
683,7.241,0.201793203282644
684,7.249,0.12974617390791
685,7.256,0.116843611974033
686,7.264,0.304221510104556
687,7.271,0.425674985813292
688,7.279,0.336397853320457
689,7.287,0.242156900462465
690,7.294,0.187217774892938
691,7.302,0.157797236871275
692,7.309,0.128254499536717
693,7.317,0.13312983074426
694,7.324,0.106165920288714
