#"+EI TIC Scan ACE-Blank2.d "
#Point,X(Minutes),Y(Counts)
0,2.095,0.0947276882896954
1,2.102,0.0927348263587933
2,2.110,0.073054122888067
3,2.117,0.0823318963749937
4,2.125,0.0780839538380709
5,2.132,0.0781840736958435
6,2.140,0.0697930760920454
7,2.147,0.0611064865272045
8,2.155,0.0616404591019916
9,2.162,0.0607822888925123
10,2.170,0.0596952732938384
11,2.178,0.0688633916984428
12,2.185,0.064825224101615
13,2.193,0.0440861107058641
14,2.200,0.0451540558554384
15,2.208,0.0642483430163539
16,2.215,0.0456641903688511
17,2.223,0.0448823019557699
18,2.230,0.0443244913196083
19,2.238,0.0396617665147705
20,2.245,0.0766155292574063
21,2.253,0.120472794574076
22,2.260,0.0664938883978248
23,2.268,0.0452398728763863
24,2.275,0.0445104281983289
25,2.283,0.0307558667852849
26,2.291,0.0395854847183724
27,2.298,0.0472661080932125
28,2.306,0.041263684239132
29,2.313,0.0334829410065192
30,2.321,0.0375401790524466
31,2.328,0.0239810897426729
32,2.336,0.0375926227874703
33,2.343,0.0375449466647215
34,2.351,0.0350467178326816
35,2.358,0.0260931419804471
36,2.366,0.0357141835511655
37,2.373,0.0342743646441502
38,2.381,0.0509228667080495
39,2.389,0.215214785700596
40,2.396,0.291172384464068
41,2.404,0.0838336942415825
42,2.411,0.0429943274949153
43,2.419,0.0492494347995648
44,2.426,0.0343411112159986
45,2.434,0.0302743379455214
46,2.441,0.0402386476000317
47,2.449,0.0332970041277987
48,2.456,0.0365580509238202
49,2.464,0.0453209222850594
50,2.471,0.0520861641031215
51,2.479,0.0484294054882845
52,2.486,0.0424841929815026
53,2.494,0.0476475170752034
54,2.502,0.0346891469120652
55,2.509,0.045254175713211
56,2.517,0.0499455061916981
57,2.524,0.0375687847260959
58,2.532,0.047785777831175
59,2.539,0.0372874956018777
60,2.547,0.0466987622325012
61,2.554,0.0454305773673817
62,2.562,0.0517142903456805
63,2.569,0.0378310034012146
64,2.577,0.0304221339260429
65,2.584,0.0393614069414528
66,2.592,0.0277141301539081
67,2.600,0.0448727667312201
68,2.607,0.0434472506610294
69,2.615,0.0411730996059092
70,2.622,0.035280330834151
71,2.630,0.0383220674655278
72,2.637,0.033368518311922
73,2.645,0.0459645499421689
74,2.652,0.03282977812486
75,2.660,0.0419788260803648
76,2.667,0.0298929289635306
77,2.675,0.0342695970318753
78,2.682,0.0384269549355753
79,2.690,0.0299739783722037
80,2.697,0.0374591296437735
81,2.705,0.0399525908635385
82,2.713,0.0467845792534491
83,2.720,0.0633806375823247
84,2.728,0.0360240783490331
85,2.735,0.040143295354534
86,2.743,0.0586034900828897
87,2.750,0.0374591296437735
88,2.758,0.0320192840381295
89,2.765,0.0531350388035963
90,2.773,0.0530778274562977
91,2.780,0.0333303774137229
92,2.788,0.0569729666848789
93,2.795,0.0448155553839215
94,2.803,0.0502840066632149
95,2.810,0.0371444672336311
96,2.818,0.037149234845906
97,2.826,0.0429847922703656
98,2.833,0.0484866168355832
99,2.841,0.0498072454357264
100,2.848,0.0522005867977188
101,2.856,0.0418214948752936
102,2.863,0.0365294452501709
103,2.871,0.0460551345753917
104,2.878,0.0502601686018405
105,2.886,0.059256652964549
106,2.893,0.0371396996213562
107,2.901,0.0449681189767178
108,2.908,0.0525057139833114
109,2.916,0.0461028106981405
110,2.924,0.0459788527789935
111,2.931,0.0392326814100309
112,2.939,0.0394949000851496
113,2.946,0.0580790527326523
114,2.954,1.27233745541091
115,2.961,16.7830250118475
116,2.969,56.9908452309098
117,2.976,100
118,2.984,20.7874426813814
119,2.991,0.189307580598869
120,2.999,0.113612200510516
121,3.006,0.0900411254234832
122,3.014,0.0820076987403015
123,3.021,0.0652304711449802
124,3.029,0.0857979504988353
125,3.037,0.0902890412617772
126,3.044,0.0771590370567432
127,3.052,0.057592756280614
128,3.059,0.0736262363610532
129,3.067,0.0739885748939445
130,3.074,0.048453243549659
131,3.082,0.0583174333463966
132,3.089,0.0608681059134602
133,3.097,0.0413733393214544
134,3.104,0.0418644033857675
135,3.112,0.0587798917370605
136,3.119,0.0750851257171681
137,3.127,0.0904368372422986
138,3.135,0.0410253036253877
139,3.142,0.0411349587077101
140,3.150,0.0481719544254407
141,3.157,0.0569348257866799
142,3.165,0.0678860311820913
143,3.172,0.0428274610652944
144,3.180,0.0763437753577378
145,3.187,0.0508942610344002
146,3.195,0.0532971376209424
147,3.202,0.0404579577646764
148,3.210,0.0419406851821657
149,3.217,0.036982368416285
150,3.225,0.0445485690965279
151,3.232,0.0228034895107762
152,3.240,0.0359764022262842
153,3.248,0.0709230002011932
154,3.255,0.292926865781226
155,3.263,0.556304070682712
156,3.270,0.287019794172643
157,3.278,0.0612781205691003
158,3.285,0.0389132513876136
159,3.293,0.0310085502358538
160,3.300,0.0404579577646764
161,3.308,0.0526773480252073
162,3.315,0.0558525778002809
163,3.323,0.0336498074361402
164,3.330,0.0296497807375115
165,3.338,0.0339883079076571
166,3.346,0.0193898791219584
167,3.353,0.0324769748165184
168,3.361,0.0341313362759036
169,3.368,0.0415211353019758
170,3.376,0.0421599953468104
171,3.383,0.0252588098323421
172,3.391,0.0286390469352358
173,3.398,0.0271038757827227
174,3.406,0.0254209086496882
175,3.413,0.0253684649146645
176,3.421,0.0237665471903031
177,3.428,0.0310848320322519
178,3.436,0.0252254365464179
179,3.443,0.0395664142692728
180,3.451,0.0248964712994509
181,3.459,0.0244292452965121
182,3.466,0.0308273809694081
183,3.474,0.0369680655794604
184,3.481,0.0568108678675328
185,3.489,0.0848205899824838
186,3.496,0.0456403523074767
187,3.504,0.0357189511634404
188,3.511,0.0315520580351907
189,3.519,0.0278476232976048
190,3.526,0.0297689710443836
191,3.534,0.0338357443148607
192,3.541,0.0334161944346708
193,3.549,0.0307654020098346
194,3.557,0.0337928358043868
195,3.564,0.029711759697085
196,3.572,0.0335973637011165
197,3.579,0.0307415639484602
198,3.587,0.0199095488599209
199,3.594,0.0201050209631912
200,3.602,0.0362958322487015
201,3.609,0.0252921831182663
202,3.617,0.0291205757749992
203,3.624,0.0195329074902049
204,3.632,0.0238285261498766
205,3.639,0.0228893065317242
206,3.647,0.025182528035944
207,3.654,0.0227653486125771
208,3.662,0.0324245310814947
209,3.670,0.0302266618227726
210,3.677,0.0263696634923904
211,3.685,0.0223744044060366
212,3.692,0.0203004930664615
213,3.700,0.0313947268301195
214,3.707,0.0237617795780282
215,3.715,0.0263744311046653
216,3.722,0.0283291521373683
217,3.730,0.0346510060138661
218,3.737,0.0272850450491684
219,3.745,0.0282194970550459
220,3.752,0.0278333204607802
221,3.760,0.0335496875783676
222,3.767,0.0175114398856536
223,3.775,0.0204053805365089
224,3.783,0.0189512587926689
225,3.790,0.0146031963979736
226,3.798,0.0284006663214915
227,3.805,0.0203529368014852
228,3.813,0.0249203093608253
229,3.820,0.018116926644564
230,3.828,0.0107414304553165
231,3.835,0.0175829540697769
232,3.843,0.0346462384015912
233,3.850,0.0349942740976579
234,3.858,0.0292731393677955
235,3.865,0.0262457055732434
236,3.873,0.0252302041586928
237,3.881,0.0172206155368856
238,3.888,0.00979744322488922
239,3.896,0.0222504464868895
240,3.903,0.021439952400159
241,3.911,0.0202337464946131
242,3.918,0.0241098152740948
243,3.926,0.0322815027132481
244,3.933,0.0201860703718642
245,3.941,0.0220454391590695
246,3.948,0.020276655005087
247,3.956,0.0293398859396439
248,3.963,0.0499645766407976
249,3.971,0.0807776547733811
250,3.978,0.0488441877561996
251,3.986,0.0243624987246637
252,3.994,0.0292445336941462
253,4.001,0.0178499403571704
254,4.009,0.0135686245343235
255,4.016,0.0320145164258546
256,4.024,0.021110987153192
257,4.031,0.0255830074670343
258,4.039,0.0127295247739437
259,4.046,0.0262743112468927
260,4.054,0.0263505930432909
261,4.061,0.0263124521450918
262,4.069,0.0166437344516245
263,4.076,0.0215591427070312
264,4.084,0.0606583309733653
265,4.092,0.329837720013387
266,4.099,0.64637856939212
267,4.107,0.30895557824939
268,4.114,0.0590325751876294
269,4.122,0.0109178321094873
270,4.129,0.0233803705960374
271,4.137,0.0308798247044319
272,4.144,0.028753469629833
273,4.152,0.0190609138749913
274,4.159,0.032867919023059
275,4.167,0.0375163409910722
276,4.174,0.0230180320631461
277,4.182,0.0217403119734768
278,4.189,0.0193040621010104
279,4.197,0.00846251178792135
280,4.205,0.022936982654473
281,4.212,0.0137307233516696
282,4.220,0.0301980561491233
283,4.227,0.0179548278272179
284,4.235,0.0240144630285971
285,4.242,0.0146174992347982
286,4.250,0.0232230393909661
287,4.257,0.0215448398702065
288,4.265,0.020901212213097
289,4.272,0.024019230640872
290,4.280,0.0163767481642309
291,4.287,0.0147271543171206
292,4.295,0.0175638836206773
293,4.303,0.0161335999382117
294,4.310,0.0119810096467867
295,4.318,0.00336116665379411
296,4.325,0.00927777348692673
297,4.333,0.0213779734405855
298,4.340,0.0153660143619552
299,4.348,0.0189703292417685
300,4.355,0.0282957788514441
301,4.363,0.0186127583211521
302,4.370,0.0115566921543219
303,4.378,0.0071847916982521
304,4.385,0.0291682518977481
305,4.393,0.0163529101028565
306,4.400,0.0153278734637561
307,4.408,0.0196759358584515
308,4.416,0.0984035173536319
309,4.423,0.122570543975025
310,4.431,0.0368870161707873
311,4.438,0.0215591427070312
312,4.446,0.0199095488599209
313,4.453,0.0156473034861734
314,4.461,0.0166437344516245
315,4.468,0.0170346786581651
316,4.476,0.02306094057362
317,4.483,0.0170823547809139
318,4.491,0.019780823328499
319,4.498,0.0172349183737102
320,4.506,0.012839179856266
321,4.513,0.0256878949370818
322,4.521,0.0204530566592578
323,4.529,0.00963534440754312
324,4.536,0.0111848183968808
325,4.544,0.00906799854683178
326,4.551,0.0156711415475479
327,4.559,0.0124720737110999
328,4.566,0.0188177656489722
329,4.574,0.00387606877948172
330,4.581,0.0212540155214385
331,4.589,0.00749468649611964
332,4.596,0.0154136904847041
333,4.604,0.00971639381621617
334,4.611,0.0119190306872132
335,4.619,0.0179309897658435
336,4.627,0.00807156758138076
337,4.634,0.0249775207081239
338,4.642,0.026927474128552
339,4.649,0.0167486219216719
340,4.657,0.0228177923476009
341,4.664,0.015375549586505
342,4.672,0.0222027703641407
343,4.679,0.0230514053490703
344,4.687,0.0218022909330503
345,4.694,0.0183743777074078
346,4.702,0.0199238516967455
347,4.709,0.0309465712762803
348,4.717,0.0097736051635148
349,4.724,0.0174446933138052
350,4.732,0.0124768413233747
351,4.740,0.0168058332689706
352,4.747,0.00973069665304083
353,4.755,0.0190704490995411
354,4.762,0.0114375018474498
355,4.770,0.013006046285887
356,4.777,0.0130155815104368
357,4.785,0.0147986685012439
358,4.792,0.0125245174461236
359,4.800,0.0156949796089223
360,4.807,0.00314662410142428
361,4.815,0.0171061928422883
362,4.822,0.014836809399443
363,4.830,0.0623031572082007
364,4.838,0.181436252733034
365,4.845,0.253327078226029
366,4.853,0.0857455067638115
367,4.860,0.0253303240164654
368,4.868,0.0221407914045672
369,4.875,0.0142789987632814
370,4.883,0.0183314691969339
371,4.890,0.00805249713228122
372,4.898,0.0119381011363127
373,4.905,0.00688919973720921
374,4.913,0.0109416701708617
375,4.920,0.0130298843472614
376,4.928,0.0125721935688724
377,4.935,0.0167486219216719
378,4.943,0.0184411242792562
379,4.951,0.0232468774523406
380,4.958,0.0198141966144232
381,4.966,0.0166675725129989
382,4.973,0.0135686245343235
383,4.981,0.000190704490995411
384,4.988,0.0162718606941834
385,4.996,0.00380932220763333
386,5.003,0.0147986685012439
387,5.011,0.0157235852825716
388,5.018,0.0113755228878762
389,5.026,0.0132444268996313
390,5.033,0.00910613944503086
391,5.041,0.0257069653861814
392,5.049,0.0206628315993527
393,5.056,0.0222361436500649
394,5.064,0.0192134774677876
395,5.071,0.0144697032542768
396,5.079,0.0139404982917645
397,5.086,0.0155996273634246
398,5.094,0.00328965246967083
399,5.101,0
400,5.109,0.0178642431939951
401,5.116,0.0212635507459883
402,5.124,0.0157140500580218
403,5.131,0.0183600748705832
404,5.139,0.0171014252300135
405,5.146,0.0115852978279712
406,5.154,0.0121669465255072
407,5.162,0.000123957919147017
408,5.169,0.0120811295045593
409,5.177,0.0101693169823303
410,5.184,0.0146937810311964
411,5.192,0.0122098550359812
412,5.199,0.017745052887123
413,5.207,0.0133874552678778
414,5.214,0.0137640966375938
415,5.222,0.00700839004408134
416,5.229,0.0184744975651804
417,5.237,0.0112801706423785
418,5.244,0.015623465424799
419,5.252,0.00922532975190299
420,5.260,0.00566869099483858
421,5.267,0.0108367827008142
422,5.275,0.00839099760379807
423,5.282,0.017287362108734
424,5.290,0.00509180990957747
425,5.297,0.0112420297441795
426,5.305,0.0253541620778399
427,5.312,0.0284721805056148
428,5.320,0.0162241845714346
429,5.327,0.00253636973023896
430,5.335,0.00910613944503086
431,5.342,0.0116472767875447
432,5.350,0.00997384487905998
433,5.357,0.0170156082090655
434,5.365,0.0128344122439911
435,5.373,0.0105888668625202
436,5.380,0.0116949529102936
437,5.388,0.0132921030223801
438,5.395,0.00467226002938756
439,5.403,0.0212778535828129
440,5.410,0.00932544960967558
441,5.418,0.015084725237737
442,5.425,0.0171300309036628
443,5.433,0.0243338930510144
444,5.440,0.00866751911574142
445,5.448,0.0141598084564092
446,5.455,0.0116901852980187
447,5.463,0.0181502999304882
448,5.470,0.019904781247646
449,5.478,0.0231896661050419
450,5.486,0.0296259426761371
451,5.493,0.0272898126614433
452,5.501,0.0838336942415825
453,5.508,0.142666029713667
454,5.516,0.0797240124606314
455,5.523,0.0166532696761742
456,5.531,0.013130004205034
457,5.538,0.0090918366082062
458,5.546,0.0208153951921491
459,5.553,0.0101264084718563
460,5.561,0.0153135706269315
461,5.568,0.00422887208782323
462,5.576,0.02306094057362
463,5.584,0.01641488906243
464,5.591,0.00822889878645197
465,5.599,0.0234328143310611
466,5.606,0.0190037025276927
467,5.614,0.0181359970936636
468,5.621,0.0265460651465612
469,5.629,0.0344841395842451
470,5.636,0.0251920632604938
471,5.644,0.0300407249440521
472,5.651,0.022064509608169
473,5.659,0.0211777337250404
474,5.666,0.0211681985004906
475,5.674,0.0105411907397713
476,5.681,0.0190132377522424
477,5.689,0.0184315890547064
478,5.697,0.0202146760455135
479,5.704,0.0223839396305863
480,5.712,0.015127633748211
481,5.719,0.0229703559403972
482,5.727,0.0139786391899636
483,5.734,0.0243958720105879
484,5.742,0.0240430687022464
485,5.749,0.0209965644585947
486,5.757,0.0126532429775455
487,5.764,0.0231944337173168
488,5.772,0.0224268481410603
489,5.779,0.00631231865194809
490,5.787,0.0124291652006259
491,5.795,0.0107414304553165
492,5.802,0.0154756694442776
493,5.810,0.0250299644431477
494,5.817,0.0190466110381666
495,5.825,0.0155710216897753
496,5.832,0.0156854443843725
497,5.840,0.0173255030069331
498,5.847,0.0168582770039943
499,5.855,0.0214304171756093
500,5.862,0.00611207893640291
501,5.870,0.0125388202829483
502,5.877,0.0192468507537118
503,5.885,0.0265794384324854
504,5.892,0.0189750968540434
505,5.900,0.0110227195795347
506,5.908,0.0146985486434713
507,5.915,0.0247963514416783
508,5.923,0.00512995080777655
509,5.930,0.0193517382237593
510,5.938,0.00578788130171071
511,5.945,0.0117473966453173
512,5.953,0.011013184354985
513,5.960,0.00680815032853616
514,5.968,0.0161479027750364
515,5.975,0.00896787868905919
516,5.983,0.0173493410683075
517,5.990,0.0160620857540885
518,5.998,0.0122718339955547
519,6.006,0.0052110002164496
520,6.013,0.0148463446239927
521,6.021,0.019075216711816
522,6.028,0.0193946467342333
523,6.036,0.0278237852362304
524,6.043,0.0119237982994881
525,6.051,0.0139071250058403
526,6.058,0.00907753377138155
527,6.066,0.0333828211487466
528,6.073,0.0393709421660025
529,6.081,0.0863939020331959
530,6.088,0.105268879029467
531,6.096,0.0448060201593717
532,6.103,0.0158809164876428
533,6.111,0.0216735654016284
534,6.119,0.00790946876403466
535,6.126,0.0278285528485053
536,6.134,0.0223457987323872
537,6.141,0.0218690375048987
538,6.149,0.0192706888150862
539,6.156,0.0216449597279791
540,6.164,0.00779027845716253
541,6.171,0.00722293259645118
542,6.179,0.0173541086805824
543,6.186,0.0147414571539452
544,6.194,0.0195805836129538
545,6.201,0.0235758426993076
546,6.209,0.0187605543016735
547,6.216,0.0206675992116276
548,6.224,0.00912997750640529
549,6.232,0.0272850450491684
550,6.239,0.0189321883435694
551,6.247,0.0185841526475028
552,6.254,0.0240478363145213
553,6.262,0.0218833403417234
554,6.269,0.0212254098477892
555,6.277,0.0184363566669813
556,6.284,0.0216783330139033
557,6.292,0.018202743665512
558,6.299,0.0100119857772591
559,6.307,0.0209107474376468
560,6.314,0.014045385761812
561,6.322,0.0211300576022915
562,6.330,0.0254018382005887
563,6.337,0.0345794918297428
564,6.345,0.029173019510023
565,6.352,0.0245484356033842
566,6.360,0.0343554140528232
567,6.367,0.0197855909407739
568,6.375,0.0208964446008221
569,6.382,0.0373542421737261
570,6.390,0.0187700895262233
571,6.397,0.0218213613821499
572,6.405,0.0278047147871309
573,6.412,0.0355473171215446
574,6.420,0.028090771523624
575,6.427,0.021692635850728
576,6.435,0.024391104398313
577,6.443,0.0296068722270375
578,6.450,0.0203434015769354
579,6.458,0.027675989255709
580,6.465,0.0163529101028565
581,6.473,0.0263696634923904
582,6.480,0.0250204292185979
583,6.488,0.0170013053722409
584,6.495,0.0100215210018088
585,6.503,0.0288249838139563
586,6.510,0.0287725400789326
587,6.518,0.0136258358816221
588,6.525,0.0189321883435694
589,6.533,0.0229512854912977
590,6.541,0.0255591694056599
591,6.548,0.0314376353405935
592,6.556,0.0370872558863325
593,6.563,0.0415878818738242
594,6.571,0.0246294850120573
595,6.578,0.0185412441370288
596,6.586,0.0268368894953292
597,6.593,0.0738598493625226
598,6.601,0.0802436821985939
599,6.608,0.0630421371108079
600,6.616,0.0316998540157121
601,6.623,0.0293398859396439
602,6.631,0.027757038664382
603,6.638,0.0334257296592206
604,6.646,0.0201765351473145
605,6.654,0.0202909578419117
606,6.661,0.020734345783476
607,6.669,0.0196044216743282
608,6.676,0.0284769481178897
609,6.684,0.0243243578264646
610,6.691,0.0289775474067527
611,6.699,0.0234947932906346
612,6.706,0.0194756961429063
613,6.714,0.0131586098786833
614,6.721,0.0114899455824735
615,6.729,0.0245722736647587
616,6.736,0.0139023573935654
617,6.744,0.0241622590091185
618,6.752,0.0229083769808237
619,6.759,0.0245436679911094
620,6.767,0.0179071517044691
621,6.774,0.0213970438896851
622,6.782,0.0260359306331484
623,6.789,0.0435712085801765
624,6.797,0.0336688778852398
625,6.804,0.0277665738889318
626,6.812,0.0229465178790228
627,6.819,0.0280955391358989
628,6.827,0.0228225599598758
629,6.834,0.0224077776919608
630,6.842,0.0197188443689255
631,6.849,0.0278905318080788
632,6.857,0.0118713545644643
633,6.865,0.0267796781480305
634,6.872,0.0273184183350926
635,6.880,0.0226938344284539
636,6.887,0.0329680388808316
637,6.895,0.0242337731932418
638,6.902,0.0216306568911545
639,6.910,0.0223124254464631
640,6.917,0.0245675060524838
641,6.925,0.02077725429395
642,6.932,0.0262409379609685
643,6.940,0.0307701696221095
644,6.947,0.026302916920542
645,6.955,0.0338738852130598
646,6.963,0.0215019313597326
647,6.970,0.0185889202597777
648,6.978,0.0157283528948465
649,6.985,0.0200573448404423
650,6.993,0.0248821684626262
651,7.000,0.0350419502204067
652,7.008,0.0316188046070391
653,7.015,0.0343172731546242
654,7.023,0.0318142767103094
655,7.030,0.0396093227797468
656,7.038,0.0588990820439326
657,7.045,0.0478191511170992
658,7.053,0.0320764953854281
659,7.060,0.0487679059598014
660,7.068,0.0650397666539848
661,7.076,0.0840911453044264
662,7.083,0.0472231995827386
663,7.091,0.0274566790910643
664,7.098,0.0296307102884119
665,7.106,0.0231324547577433
666,7.113,0.0325055804901678
667,7.121,0.0400813163949604
668,7.128,0.0170966576177386
669,7.136,0.0322242913659495
670,7.143,0.0311754166654748
671,7.151,0.0294590762465161
672,7.158,0.0327296582670874
673,7.166,0.0282385675041454
674,7.173,0.0458119863493725
675,7.181,0.0336498074361402
676,7.189,0.0251110138518207
677,7.196,0.0324054606323952
678,7.204,0.0295162875938147
679,7.211,0.0247439077066545
680,7.219,0.0250299644431477
681,7.226,0.0352707956096012
682,7.234,0.0487106946125028
683,7.241,0.0528013059443543
684,7.249,0.0375115733787973
685,7.256,0.0286914906702595
686,7.264,0.0400288726599367
687,7.271,0.0469323752339706
688,7.279,0.0398953795162399
689,7.287,0.0467702764166245
690,7.294,0.0335306171292681
691,7.302,0.0270037559249502
692,7.309,0.0331444405350024
