#"+EI TIC Scan ACN-Blank2.d "
#Point,X(Minutes),Y(Counts)
0,2.095,0.569825835900462
1,2.102,0.502098365367278
2,2.110,0.506956215630709
3,2.117,0.462105830640427
4,2.125,0.425231357943127
5,2.132,0.418983936557831
6,2.140,0.360893085268151
7,2.147,0.373873713065087
8,2.155,0.395880904491049
9,2.162,0.352171549446363
10,2.170,0.34298682325062
11,2.177,0.341687630738307
12,2.185,0.278727631859002
13,2.193,0.273948862878929
14,2.200,0.27353086180975
15,2.208,0.298509250024741
16,2.215,0.26025650353177
17,2.223,0.236419145262376
18,2.230,0.238836773067897
19,2.238,0.251772211560057
20,2.245,0.213237031912235
21,2.253,0.2240824650585
22,2.260,0.226319335644917
23,2.268,0.222161919605515
24,2.275,0.187863237280453
25,2.283,0.198426237271867
26,2.291,0.192404762410452
27,2.298,0.131613850160399
28,2.306,0.19705926080239
29,2.313,0.182463115359709
30,2.321,0.173572119645011
31,2.328,0.165313774197178
32,2.336,0.127219190270923
33,2.343,0.164782799866059
34,2.351,0.146526320736513
35,2.358,0.162127928210463
36,2.366,0.177978076860681
37,2.373,0.181468950654635
38,2.381,0.345720776189575
39,2.388,0.332672364435475
40,2.396,0.234814924942824
41,2.404,0.146571510041289
42,2.411,0.136833214862039
43,2.419,0.11671267691048
44,2.426,0.121434959259582
45,2.434,0.0857805977912372
46,2.441,0.0947393774630995
47,2.449,0.126292809523013
48,2.456,0.121841663002567
49,2.464,0.103822427723096
50,2.471,0.106466002052498
51,2.479,0.10894011648899
52,2.486,0.133014718608459
53,2.494,0.11514234856951
54,2.502,0.0746979207948979
55,2.509,0.082651238435492
56,2.517,0.104748808471006
57,2.524,0.135918131440323
58,2.532,0.0977331689045163
59,2.539,0.054509598886174
60,2.547,0.0770477646432553
61,2.554,0.0728225646466897
62,2.562,0.0949879186393681
63,2.569,0.0700095304243773
64,2.577,0.0804143678490749
65,2.584,0.0874413047417589
66,2.592,0.0658634117111698
67,2.599,0.0947845667678756
68,2.607,0.0973716544663075
69,2.615,0.0754548416498977
70,2.622,0.0888421731898181
71,2.630,0.068122876949975
72,2.637,0.0981398726475013
73,2.645,0.048770557179609
74,2.652,0.0574920930013968
75,2.660,0.040862428843791
76,2.667,0.0476295272340124
77,2.675,0.0630729721412455
78,2.682,0.0960498673016065
79,2.690,0.0474374726887139
80,2.697,0.0561364138581137
81,2.705,0.0995972277265306
82,2.713,0.0549840865863231
83,2.720,0.0954285143609351
84,2.728,0.0840859988621333
85,2.735,0.0633892972746782
86,2.743,0.0939598619557118
87,2.750,0.0590963133209485
88,2.758,0.0658747090373639
89,2.765,0.0761439785477332
90,2.773,0.0591302052995305
91,2.780,0.0355074962278228
92,2.788,0.0578310127872176
93,2.795,0.0788101475295233
94,2.803,0.0735568908493014
95,2.810,0.0618189689337086
96,2.818,0.0734778095659432
97,2.826,0.0330785710961073
98,2.833,0.0532330010262491
99,2.841,0.0784373357651205
100,2.848,0.0562945764248301
101,2.856,0.0471550395338633
102,2.863,0.0504651561087128
103,2.871,0.0653324373800506
104,2.878,0.074291217051913
105,2.886,0.063276324012738
106,2.893,0.0774318737338522
107,2.901,0.0616382117146042
108,2.908,0.0475278512982661
109,2.916,0.0590172320375903
110,2.923,0.0540125165336369
111,2.931,0.131274930374579
112,2.939,2.82888437096262
113,2.946,18.7830136114705
114,2.954,52.1271622517469
115,2.961,100
116,2.969,68.7711401216406
117,2.976,4.8458412056868
118,2.984,0.251433291774236
119,2.991,0.175119853333592
120,2.999,0.119525711132792
121,3.006,0.117130677979658
122,3.014,0.0758954373714647
123,3.021,0.0987612255881727
124,3.029,0.142730419135321
125,3.037,0.0670609282877366
126,3.044,0.0490529903344596
127,3.052,0.0591076106471425
128,3.059,0.0864810320152668
129,3.067,0.0636265411247528
130,3.074,0.0746188395115398
131,3.082,0.0767427368360166
132,3.089,0.0657843304278117
133,3.097,0.0819733988638505
134,3.104,0.100331553929142
135,3.112,0.126755999896968
136,3.119,0.103528697242052
137,3.127,0.0638411903224392
138,3.134,0.0497534245584892
139,3.142,0.0265713112083485
140,3.150,0.0638185956700512
141,3.157,0.0827190223926562
142,3.165,0.067230388180647
143,3.172,0.0829110769379546
144,3.180,0.0538317593145325
145,3.187,0.0761326812215392
146,3.195,0.0497760192108772
147,3.202,0.0838487550120588
148,3.210,0.0458219550429683
149,3.217,0.0472454181434155
150,3.225,0.0487366652010269
151,3.232,0.0971908972472031
152,3.240,0.209599292877759
153,3.248,0.556777424146363
154,3.255,1.21186418083314
155,3.263,1.03288064194119
156,3.270,0.260742288558113
157,3.278,0.036490363606703
158,3.285,0.0691170416550493
159,3.293,0.0670948202663186
160,3.300,0.065038706899006
161,3.308,0.0622482673290816
162,3.315,0.0815779924470596
163,3.323,0.0516852673376676
164,3.330,0.0526568373903538
165,3.338,0
166,3.345,0.028559640618497
167,3.353,0.0677500651855721
168,3.361,0.0434156245636408
169,3.368,0.0430992994302081
170,3.376,0.0439240042423719
171,3.383,0.026831149710811
172,3.391,0.0332028416842415
173,3.398,0.038693342214538
174,3.406,0.0469516876623708
175,3.413,0.0490868823130417
176,3.421,0.0526116480855777
177,3.428,0.0445679518354314
178,3.436,0.0766636555526584
179,3.443,0.054487004233786
180,3.451,0.0494032074464744
181,3.459,0.0548598159981888
182,3.466,0.0654454106419909
183,3.474,0.0730033218657941
184,3.481,0.146526320736513
185,3.489,0.119446629849434
186,3.496,0.0529957571761746
187,3.504,0.0510978063755783
188,3.511,0.0412804299129699
189,3.519,0.0700999090339295
190,3.526,0.0511429956803544
191,3.534,0.0306270513120037
192,3.541,0.0243570352743194
193,3.549,0.0163698256551432
194,3.556,0.0508944545040858
195,3.564,0.071658940048705
196,3.572,0.0473583914053557
197,3.579,0.0675241186616916
198,3.587,0.0587573935351277
199,3.594,0.0665525486090054
200,3.602,0.0661684395184085
201,3.609,0.0511316983541603
202,3.617,0.0609264801643806
203,3.624,0.0829788608951188
204,3.632,0.0774657657124342
205,3.639,0.0564979282963225
206,3.647,0.0664847646518413
207,3.654,0.0640671368463198
208,3.662,0.0533007849834133
209,3.669,0.0489287197463253
210,3.677,0.0607344256190822
211,3.685,0.0328978138770028
212,3.692,0.069873962510049
213,3.700,0.0686199593025121
214,3.707,0.095801326125338
215,3.715,0.0895313100876537
216,3.722,0.0598306395235601
217,3.730,0.044850384990282
218,3.737,0.0339823571916293
219,3.745,0.0506233186754292
220,3.752,0.0563171710772181
221,3.760,0.0759745186548229
222,3.767,0.0777481988672849
223,3.775,0.0813520459231791
224,3.783,0.0923669389623542
225,3.790,0.0471889315124454
226,3.798,0.114317643757346
227,3.805,0.0648353550275135
228,3.813,0.084831622390939
229,3.820,0.0977783582092925
230,3.828,0.0604293978118435
231,3.835,0.103686859808768
232,3.843,0.0873622234584008
233,3.850,0.076042302611987
234,3.858,0.0618867528908728
235,3.865,0.0838148630334767
236,3.873,0.0948862427036219
237,3.880,0.0838826469906408
238,3.888,0.08000766410609
239,3.896,0.106974381731229
240,3.903,0.0982189539308595
241,3.911,0.0597515582402019
242,3.918,0.0567464694725911
243,3.926,0.101562962484291
244,3.933,0.0872944395012366
245,3.941,0.0978913314712327
246,3.948,0.112984559266451
247,3.956,0.10992298386787
248,3.963,0.164974854411357
249,3.971,0.172995956009116
250,3.978,0.144978587047932
251,3.986,0.0991679293311576
252,3.994,0.0811938833564627
253,4.001,0.11427245445257
254,4.009,0.112848991352123
255,4.016,0.100229877993396
256,4.024,0.113605912207122
257,4.031,0.127027135725625
258,4.039,0.109900389215482
259,4.046,0.146198698276887
260,4.054,0.110363579589437
261,4.061,0.111335149642123
262,4.069,0.101958368901082
263,4.076,0.169177459755535
264,4.084,0.486722704417209
265,4.091,1.02131217991851
266,4.099,0.887122539385868
267,4.107,0.277835143089674
268,4.114,0.117503489744061
269,4.122,0.136776728231069
270,4.129,0.0898363378948924
271,4.137,0.106985679057423
272,4.144,0.122293556050328
273,4.152,0.127806651233013
274,4.159,0.152965796667108
275,4.167,0.119209385999359
276,4.174,0.156897266182629
277,4.182,0.16164214318412
278,4.189,0.157145807358898
279,4.197,0.125852213801446
280,4.205,0.145780697207708
281,4.212,0.153214337843377
282,4.220,0.134325208446966
283,4.227,0.121615716478687
284,4.235,0.146887835174722
285,4.242,0.103935400985036
286,4.250,0.155338235167853
287,4.257,0.140075547479725
288,4.265,0.154185907896063
289,4.272,0.146255184907857
290,4.280,0.165133016978074
291,4.287,0.139759222346292
292,4.295,0.160817438371956
293,4.302,0.165675288635387
294,4.310,0.140324088655993
295,4.318,0.159879760297852
296,4.325,0.151045251214124
297,4.333,0.146458536779349
298,4.340,0.157676781690017
299,4.348,0.172860388094787
300,4.355,0.187343560275528
301,4.363,0.178554240496576
302,4.370,0.173526930340235
303,4.378,0.176136612691055
304,4.385,0.165584910025835
305,4.393,0.175888071514786
306,4.400,0.187942318563812
307,4.408,0.273903673574153
308,4.416,0.346127479932559
309,4.423,0.284466673565567
310,4.431,0.197669316416868
311,4.438,0.181243004130754
312,4.446,0.186191233003738
313,4.453,0.194607741018287
314,4.461,0.183717118567246
315,4.468,0.197036666150002
316,4.476,0.224624736715813
317,4.483,0.210130267208878
318,4.491,0.210367511058953
319,4.498,0.223540193401187
320,4.506,0.218501585918651
321,4.513,0.192788871501049
322,4.521,0.214084331376787
323,4.529,0.226703444735514
324,4.536,0.210932377368654
325,4.544,0.24268916130006
326,4.551,0.209113507851416
327,4.559,0.257511253266622
328,4.566,0.242350241514239
329,4.574,0.259827205136397
330,4.581,0.219653913190442
331,4.589,0.237661851143719
332,4.596,0.222139324953127
333,4.604,0.210875890737684
334,4.611,0.225167008373126
335,4.619,0.266323167697962
336,4.626,0.214423251162608
337,4.634,0.225788361313798
338,4.642,0.246439873596477
339,4.649,0.283596779448627
340,4.657,0.249467557016476
341,4.664,0.283834023298702
342,4.672,0.259307528131472
343,4.679,0.273982754857511
344,4.687,0.276716707796466
345,4.694,0.273338807264452
346,4.702,0.278501685335122
347,4.709,0.264210567699679
348,4.717,0.326526618985925
349,4.724,0.287042463937805
350,4.732,0.276648923839301
351,4.740,0.294973186926011
352,4.747,0.279687904585494
353,4.755,0.271960533468781
354,4.762,0.288081817947655
355,4.770,0.257827578400055
356,4.777,0.303005585849963
357,4.785,0.29278150564437
358,4.792,0.278964875709077
359,4.800,0.307309867129887
360,4.807,0.30512948317444
361,4.815,0.255240490701623
362,4.822,0.313342639317497
363,4.830,0.351968197574871
364,4.837,0.435783060608347
365,4.845,0.381137893807845
366,4.853,0.31638162006369
367,4.860,0.31666405321854
368,4.868,0.277428439346689
369,4.875,0.332999986895102
370,4.883,0.306033269269962
371,4.890,0.305163375153022
372,4.898,0.318754058564435
373,4.905,0.326809052140776
374,4.913,0.347404077792484
375,4.920,0.305954187986604
376,4.928,0.32264033877518
377,4.935,0.321318551610479
378,4.943,0.328707002941372
379,4.951,0.329023328074805
380,4.958,0.355120151583004
381,4.966,0.313218368729363
382,4.973,0.331056846789729
383,4.981,0.345969317365843
384,4.988,0.339032759082711
385,4.996,0.324944993318761
386,5.003,0.366812884193821
387,5.011,0.332943500264131
388,5.018,0.393598844599856
389,5.026,0.342557524855247
390,5.033,0.384165577227844
391,5.041,0.363231631790314
392,5.048,0.358362484200689
393,5.056,0.367852238203671
394,5.064,0.375184202903594
395,5.071,0.41592236115925
396,5.079,0.363039577245016
397,5.086,0.368473591144342
398,5.094,0.347867268166439
399,5.101,0.377692209318667
400,5.109,0.382391897015382
401,5.116,0.406172768653806
402,5.124,0.393237330161647
403,5.131,0.419311559017458
404,5.139,0.404613737639031
405,5.146,0.407528447797089
406,5.154,0.397801449944033
407,5.162,0.430168289489917
408,5.169,0.431354508740289
409,5.177,0.429015962218126
410,5.184,0.444312541884837
411,5.192,0.413979221053878
412,5.199,0.417786419981264
413,5.207,0.440923344026629
414,5.214,0.441725454186405
415,5.222,0.432902242428871
416,5.229,0.417300634954921
417,5.237,0.449046121560134
418,5.244,0.433467108738572
419,5.252,0.444764434932598
420,5.259,0.412047378274699
421,5.267,0.432359970771558
422,5.275,0.491106066980491
423,5.282,0.463393725826546
424,5.290,0.450672936532073
425,5.297,0.466794221010948
426,5.305,0.477560572873855
427,5.312,0.504945291568173
428,5.320,0.496540080879818
429,5.327,0.494676022057803
430,5.335,0.480339715117585
431,5.342,0.469482984645126
432,5.350,0.502505069110263
433,5.357,0.495941322591534
434,5.365,0.486971245593478
435,5.372,0.524794693691076
436,5.380,0.524116854119434
437,5.388,0.579767482951205
438,5.395,0.552145520406812
439,5.403,0.563318576012704
440,5.410,0.591076106471425
441,5.418,0.574062333223222
442,5.425,0.623894839065069
443,5.433,0.625035869010666
444,5.440,0.677681409074826
445,5.448,0.663028777001174
446,5.455,0.616043197360222
447,5.463,0.606112847635673
448,5.470,0.581597649794637
449,5.478,0.561929004890838
450,5.486,0.573587845523073
451,5.493,0.574559415575759
452,5.501,0.611535564208805
453,5.508,0.600000994164705
454,5.516,0.60812377169821
455,5.523,0.610597886134701
456,5.531,0.625905763127606
457,5.538,0.637406441193124
458,5.546,0.653719780217297
459,5.553,0.649155660434911
460,5.561,0.594058600586648
461,5.568,0.674314805869006
462,5.576,0.674393887152364
463,5.583,0.63565535563305
464,5.591,0.642693589851928
465,5.599,0.604282680792241
466,5.606,0.644388188781032
467,5.614,0.650872854016403
468,5.621,0.653493833693417
469,5.629,0.614800491478879
470,5.636,0.649279931023045
471,5.644,0.669242306407889
472,5.651,0.680155523511317
473,5.659,0.715357991931902
474,5.666,0.657368816577968
475,5.674,0.656916923530207
476,5.681,0.651731450807149
477,5.689,0.710816466801903
478,5.697,0.719357245404587
479,5.704,0.670067011220053
480,5.712,0.651844424069089
481,5.719,0.656849139573042
482,5.727,0.636536547076184
483,5.734,0.670485012289231
484,5.742,0.704388288197503
485,5.749,0.690560360936015
486,5.757,0.656352057220505
487,5.764,0.572943897930014
488,5.772,0.62499067970589
489,5.779,0.646071490383942
490,5.787,0.658509846523564
491,5.794,0.611705024101716
492,5.802,0.658871360961773
493,5.810,0.677489354529527
494,5.817,0.662441316039085
495,5.825,0.627747227297232
496,5.832,0.628458958847456
497,5.840,0.662057206948488
498,5.847,0.690571658262209
499,5.855,0.664610402668338
500,5.862,0.7270846165213
501,5.870,0.680042550249377
502,5.877,0.713516527762275
503,5.885,0.73421322934973
504,5.892,0.709370409049068
505,5.900,0.720837195136004
506,5.908,0.708918516001307
507,5.915,0.733185172666074
508,5.923,0.75323792666047
509,5.930,0.716047128829737
510,5.938,0.792258891334634
511,5.945,0.775425875305536
512,5.953,0.720057679628616
513,5.960,0.758897887083677
514,5.968,0.771562189747179
515,5.975,0.805228221805376
516,5.983,0.811125426078657
517,5.990,0.806685576884405
518,5.998,0.80257335014978
519,6.005,0.799828099884632
520,6.013,0.829856392908352
521,6.021,0.804878004693361
522,6.028,0.802257025016347
523,6.036,0.837075384346334
524,6.043,0.824083459223205
525,6.051,0.786214821820831
526,6.058,0.806188494531868
527,6.066,0.85092590626021
528,6.073,0.805081356564854
529,6.081,0.827642116974323
530,6.088,0.808628716989778
531,6.096,0.780611348028594
532,6.103,0.788124069947621
533,6.111,0.77689452771076
534,6.119,0.773607005788298
535,6.126,0.820219773664848
536,6.134,0.807984769396718
537,6.141,0.786757093478144
538,6.149,0.765156605795167
539,6.156,0.768150397236584
540,6.164,0.706500888195785
541,6.171,0.669140630472142
542,6.179,0.699654708522206
543,6.186,0.730767544860553
544,6.194,0.709856194075411
545,6.201,0.705382452902577
546,6.209,0.716058426155931
547,6.216,0.718735892463915
548,6.224,0.66812387111468
549,6.232,0.753531657141514
550,6.239,0.713234094607425
551,6.247,0.677082650786542
552,6.254,0.729671704219732
553,6.262,0.746708072120323
554,6.269,0.789954236791053
555,6.277,0.847084815354241
556,6.284,0.85962484742961
557,6.292,0.845559676318048
558,6.299,0.754548416498977
559,6.307,0.781051943750161
560,6.314,0.792202404703664
561,6.322,0.737342588705476
562,6.329,0.765495525580988
563,6.337,0.807634552284703
564,6.345,0.815531383294327
565,6.352,0.8174745233997
566,6.360,0.810741316988061
567,6.367,0.888941408903106
568,6.375,1.09727540124713
569,6.382,1.20170788458471
570,6.390,1.24409545246469
571,6.397,1.22438161825612
572,6.405,1.1478309359654
573,6.412,1.10296925364892
574,6.420,1.10612120765706
575,6.427,1.04301434353723
576,6.435,1.0555430782864
577,6.443,1.0434549392588
578,6.450,0.959753049487259
579,6.458,0.924945987483466
580,6.465,0.984166571392549
581,6.473,0.931758275178464
582,6.480,0.989216476201279
583,6.488,0.981613375672699
584,6.495,0.89144941531818
585,6.503,0.909141028138024
586,6.510,0.914495960753993
587,6.518,0.84548059503469
588,6.525,0.870707524425949
589,6.533,0.886026698745048
590,6.540,0.839685066697154
591,6.548,0.857195922297894
592,6.556,0.85260920786312
593,6.563,0.863578911597519
594,6.571,0.898103540446461
595,6.578,0.863262586464086
596,6.586,0.869882819613785
597,6.593,0.826715736226413
598,6.601,0.829438391839173
599,6.608,1.0268026804488
600,6.616,1.50688255706392
601,6.623,2.39511223441681
602,6.631,3.01918783070098
603,6.638,3.47143109557402
604,6.646,3.59758833718271
605,6.654,3.59135221312361
606,6.661,3.60647933289741
607,6.669,3.64065374463433
608,6.676,3.67635329540746
609,6.684,3.81821382042584
610,6.691,3.82805379154083
611,6.699,3.91933618718856
612,6.706,4.02228872079472
613,6.714,4.05274631221381
614,6.721,4.0419799603509
615,6.729,4.19275407573637
616,6.736,4.29597774517118
617,6.744,4.43143268623755
618,6.751,4.54108453427677
619,6.759,4.78101714798548
620,6.767,4.69186994698843
621,6.774,4.68045964753246
622,6.782,4.57664851713556
623,6.789,4.49016748512029
624,6.797,4.30289170880193
625,6.804,4.32538468525423
626,6.812,4.40359607449547
627,6.819,4.37614357184399
628,6.827,4.39209539642995
629,6.834,4.50637914820872
630,6.842,4.44669537392568
631,6.849,4.30613404141961
632,6.857,4.34120094192587
633,6.865,4.6686652389859
634,6.872,5.46752176881784
635,6.880,6.01375878762518
636,6.887,6.08621983783366
637,6.895,6.2222961318407
638,6.902,6.12974843565924
639,6.910,6.50629961503231
640,6.917,7.44814640250204
641,6.925,9.45920603295295
642,6.932,11.4466881436369
643,6.940,11.6146228975111
644,6.947,12.0030701613665
645,6.955,12.0808748468647
646,6.962,11.9576210180879
647,6.970,11.6698329306213
648,6.978,12.063307504633
649,6.985,12.1315207601926
650,6.993,13.0141017744484
651,7.000,13.5563960264141
652,7.008,12.2039592157487
653,7.015,11.0217731108272
654,7.023,10.1877028152485
655,7.030,9.9150192529033
656,7.038,10.0031045052381
657,7.045,9.69285733329778
658,7.053,9.31843005124919
659,7.060,9.57452913874156
660,7.068,9.8581033235378
661,7.075,9.07499526642033
662,7.083,8.94689488470627
663,7.091,8.68241318117793
664,7.098,8.4277601514384
665,7.106,8.22827196550429
666,7.113,8.10452105437493
667,7.121,8.08045774958166
668,7.128,8.77958148377275
669,7.136,9.03671992527497
670,7.143,8.06736414852278
671,7.151,7.41133971376191
672,7.158,6.93313519329499
673,7.166,6.80613065222175
674,7.173,6.64048925556495
675,7.181,6.474373371208
676,7.189,7.17432181021125
677,7.196,8.99319132744938
678,7.204,8.37422212260491
679,7.211,6.2657908376877
680,7.219,4.52527957493132
681,7.226,3.7305465691602
682,7.234,3.39476744002137
683,7.241,3.51541158644737
684,7.249,3.71895551248513
685,7.256,3.75358181726982
686,7.264,3.42690833304337
687,7.271,3.13313266269392
688,7.279,2.89687167999826
689,7.286,2.80374782018091
690,7.294,2.7782384576348
691,7.302,2.63707836684045
692,7.309,2.37005476491846
693,7.317,2.29361705588968
694,7.324,2.06620187960394
695,7.332,2.06991869992178
696,7.339,2.08609647103162
697,7.347,2.08356586996416
698,7.354,2.07243800366304
699,7.362,2.04426247213515
700,7.369,1.93488175992459
701,7.377,1.90253751503109
702,7.384,1.85132673539357
703,7.392,1.84246963165746
704,7.400,1.84131730438567
705,7.407,1.76210045311316
706,7.415,1.84811829475447
707,7.422,1.83865113540388
708,7.430,1.83764567337261
709,7.437,1.88389692681095
710,7.445,1.90698866155154
711,7.452,1.87698296318021
712,7.460,1.86945894393499
713,7.467,1.90992596636199
714,7.475,2.04269214379418
715,7.482,2.27529279280297
716,7.490,2.4261346921456
717,7.497,2.2593522655432
