#"+EI TIC Scan ACN-SLA.d "
#Point,X(Minutes),Y(Counts)
0,2.095,0.0878611623093794
1,2.102,0.0887219153186363
2,2.110,0.0891884917161774
3,2.117,0.0702076811989662
4,2.125,0.0686953301172812
5,2.132,0.0828655770874306
6,2.140,0.0614674181657176
7,2.147,0.0567131655631867
8,2.155,0.116619966123336
9,2.162,0.630875644840759
10,2.170,0.5966184795144
11,2.178,0.199376943532028
12,2.185,0.122926791910788
13,2.193,0.0913403742393196
14,2.200,0.0866826546845557
15,2.208,0.0867349434187629
16,2.215,0.0746964679201376
17,2.223,0.0645122313807057
18,2.230,0.0684338864462453
19,2.238,0.0616524398406046
20,2.245,0.0626660368421595
21,2.253,0.0554019249976832
22,2.260,0.0442443135599329
23,2.268,0.0424866076485064
24,2.276,0.0447792675329757
25,2.283,0.04077314605064
26,2.291,0.0372255565451981
27,2.298,0.0572159418536405
28,2.306,0.0337503668255815
29,2.313,0.0351983625420884
30,2.321,0.0323345487916637
31,2.328,0.0319041722870352
32,2.336,0.0251106590504237
33,2.343,0.0316588174572938
34,2.351,0.0315783732508212
35,2.358,0.0356247168363932
36,2.366,0.0458934197926213
37,2.373,0.0286059598216584
38,2.381,0.0717079656496803
39,2.389,0.16620577499305
40,2.396,0.140588317441848
41,2.404,0.0531253539545085
42,2.411,0.0365337363695337
43,2.419,0.0297040232400095
44,2.426,0.0298407783910129
45,2.434,0.0348242969819908
46,2.441,0.026663232235345
47,2.449,0.0295994457715951
48,2.456,0.0315381511475849
49,2.464,0.0370888013941946
50,2.471,0.0347156973032528
51,2.479,0.0484716566100683
52,2.487,0.506601412471555
53,2.494,1.05718167262168
54,2.502,0.788570422789007
55,2.509,0.651956049146905
56,2.517,0.567276455203517
57,2.524,0.564995861950019
58,2.532,0.484487300112236
59,2.539,0.389374092589351
60,2.547,0.302526527281526
61,2.554,0.262706645077587
62,2.562,0.241827351287622
63,2.569,0.186530003758353
64,2.577,0.171221471266617
65,2.584,0.157747066682455
66,2.592,0.145957968223895
67,2.600,0.115618435752752
68,2.607,0.116426900027802
69,2.615,0.0901417555628778
70,2.622,0.102288830740241
71,2.630,0.303077570095864
72,2.637,0.584443248864771
73,2.645,1.14133435701268
74,2.652,2.97881678799798
75,2.660,1.19485790978922
76,2.667,0.532625113265443
77,2.675,0.719806715096224
78,2.682,1.68828256124057
79,2.690,0.663491748355077
80,2.698,0.223208539699538
81,2.705,0.161733077113173
82,2.713,0.164436002450652
83,2.720,0.144530083559006
84,2.728,0.147932873492797
85,2.735,0.106592595786526
86,2.743,0.108555434424457
87,2.750,0.0776407258770349
88,2.758,0.0954108510868334
89,2.765,0.0885771157469856
90,2.773,0.0887983373147853
91,2.780,0.0690613512567316
92,2.788,0.0684459530772162
93,2.795,0.0753239327306239
94,2.803,0.0755692875603653
95,2.811,0.071482721871557
96,2.818,0.0666399806419062
97,2.826,0.076160552477939
98,2.833,0.0615760178444557
99,2.841,0.0618213726741971
100,2.848,0.0678023994254353
101,2.856,0.064596697797502
102,2.863,0.0557397906648682
103,2.871,0.0656585613229404
104,2.878,0.0879375843055284
105,2.886,0.0878048513648486
106,2.893,0.0718366763800365
107,2.901,0.061909861301317
108,2.908,0.0933675682424292
109,2.916,0.0943530097717187
110,2.924,0.0816548917800179
111,2.931,0.109303565544652
112,2.939,0.942604989342752
113,2.946,5.93987953962746
114,2.954,19.401509583801
115,2.961,37.709319847452
116,2.969,49.6135058100024
117,2.976,19.3071042852951
118,2.984,0.669376242058548
119,2.991,0.0771620828485229
120,2.999,0.0626982145247485
121,3.006,0.0486285228126899
122,3.014,0.0613145741734197
123,3.022,0.0539458848605291
124,3.029,0.0427400068988951
125,3.037,0.0447913341639466
126,3.044,0.0363969812185302
127,3.052,0.0461427968326864
128,3.059,0.0397917267316742
129,3.067,0.0424745410175356
130,3.074,0.0424423633349465
131,3.082,0.0556553242480719
132,3.089,0.0311640855874873
133,3.097,0.0357453831461021
134,3.104,0.0336055672539308
135,3.112,0.050563205978356
136,3.119,0.0426273850098335
137,3.127,0.0345427422593367
138,3.135,0.0347317861445473
139,3.142,0.025597346499583
140,3.150,0.0366584248895662
141,3.157,0.0390355511908317
142,3.165,0.028501382353244
143,3.172,0.0196002309070503
144,3.180,0.0222307564587045
145,3.187,0.0237752852229785
146,3.195,0.0274073411452166
147,3.202,0.0253439472491943
148,3.210,0.0262288335203929
149,3.217,0.0270212089541481
150,3.225,0.00916259511722973
151,3.233,0.0269850090612354
152,3.240,0.0200587628839441
153,3.248,0.0283364717299752
154,3.255,0.0254605913485796
155,3.263,0.038673552261705
156,3.270,0.0171024382960759
157,3.278,0.0354195841098881
158,3.285,0.028839248020429
159,3.293,0.0605583986325772
160,3.300,0.0568257874522483
161,3.308,0.0491312991031436
162,3.315,0.0629717248267554
163,3.323,0.0607796202003769
164,3.330,0.0687556632721357
165,3.338,0.0880381395636192
166,3.346,0.0631326132397006
167,3.353,0.0659803381488308
168,3.361,0.0554341026802723
169,3.368,0.0374427559026741
170,3.376,0.0314657513617595
171,3.383,0.0266471433940505
172,3.391,0.0337986333494651
173,3.398,0.0341887877508572
174,3.406,0.0298769782839256
175,3.413,0.0304883542531174
176,3.421,0.0306975091899462
177,3.428,0.0157590200479834
178,3.436,0.0258346569086772
179,3.444,0.034060077020501
180,3.451,0.0198777634193807
181,3.459,0.0240166178423963
182,3.466,0.0245877717083518
183,3.474,0.0337061225120216
184,3.481,0.0379937987170114
185,3.489,0.0605181765293409
186,3.496,0.0312485520042835
187,3.504,0.0133135161712162
188,3.511,0.0287226039210437
189,3.519,0.0170260162999269
190,3.526,0.00801626517499511
191,3.534,0.0207908051628448
192,3.541,0.0264983216120762
193,3.549,0.0145040904270107
194,3.557,0.0199541854155297
195,3.564,0.0131204500756819
196,3.572,0.0233931752422336
197,3.579,0.0208752715796411
198,3.587,0.0518342244406232
199,3.594,0.0355281837886261
200,3.602,0.0500805407395204
201,3.609,0.0354437173718299
202,3.617,0.0258225902777063
203,3.624,0.0337905889288178
204,3.632,0.0229306210550161
205,3.639,0.0241855506759888
206,3.647,0.0130842501827692
207,3.655,0.0241051064695162
208,3.662,0.0226731995943038
209,3.670,0.0191497433508037
210,3.677,0.0246641937045008
211,3.685,0.0360309600790799
212,3.692,0.0263494998301018
213,3.700,0
214,3.707,0.0174805260664971
215,3.715,0.0359585602932545
216,3.722,0.0158113087821906
217,3.730,0.0213539146081531
218,3.737,0.00729226731674166
219,3.745,0.0292173357908502
220,3.752,0.00614191516418341
221,3.760,0.0137640037274628
222,3.768,0.0212493371397387
223,3.775,0.0154090877498275
224,3.783,0.0243263280373158
225,3.790,0.0108639900841253
226,3.798,0.0156383537382745
227,3.805,0.041730432107664
228,3.813,0.0221664010935264
229,3.820,0.0223594671890606
230,3.828,0.0343174984812134
231,3.835,0.0261644781552148
232,3.843,0.0309509084403349
233,3.850,0.0157228201550707
234,3.858,0.0261685003655385
235,3.865,0.0207948273731684
236,3.873,0.0231478204124922
237,3.881,0.0457043759074107
238,3.888,0.033364234634513
239,3.896,0.0314375958894941
240,3.903,0.0295954235612715
241,3.911,0.0441839804050784
242,3.918,0.02519512546722
243,3.926,0.00647978083136835
244,3.933,0.0235942857584151
245,3.941,0.0256174575512011
246,3.948,0.00709517901088378
247,3.956,0.0261403448932731
248,3.963,0.111004960511548
249,3.971,0.351372249451692
250,3.979,0.439760321313467
251,3.986,0.763061564916544
252,3.994,0.547571646828053
253,4.001,1.90940357378214
254,4.009,3.95638685168405
255,4.016,1.07268327120895
256,4.024,0.31738859442734
257,4.031,0.184555098489451
258,4.039,0.165550154710298
259,4.046,0.14368139718072
260,4.054,0.107384971220281
261,4.061,0.0989262629096863
262,4.069,0.120971997693504
263,4.076,0.0901015334596415
264,4.084,0.0621713049723529
265,4.092,0.0463801072417805
266,4.099,0.052630622084702
267,4.107,0.0573245415323785
268,4.114,0.0663624481295757
269,4.122,0.0838309075651019
270,4.129,0.106190374754163
271,4.137,0.0927039035390303
272,4.144,0.067762177322199
273,4.152,0.0755692875603653
274,4.159,0.083493041897917
275,4.167,0.0775522372499151
276,4.174,0.040326680704717
277,4.182,0.0373663339065251
278,4.190,0.0248170376967987
279,4.197,0.0435846710668575
280,4.205,0.0365699362624463
281,4.212,0.0228702879001617
282,4.220,0.0364774254250028
283,4.227,0.0413121222340064
284,4.235,0.0358580050351638
285,4.242,0.0198174302645263
286,4.250,0.026510388243047
287,4.257,0.0236264634410042
288,4.265,0.0338187444010832
289,4.272,0.0304038878363211
290,4.280,0.0124246076896939
291,4.287,0.0173357264948464
292,4.295,0.0104376357898205
293,4.303,0.0181924572937797
294,4.310,0.0184740120164338
295,4.318,0.0258185680673826
296,4.325,0.0219331128947558
297,4.333,0.00747728899162865
298,4.340,0.0147454230464285
299,4.348,0.0296517345058023
300,4.355,0.0200828961458859
301,4.363,0.0136352929971066
302,4.370,0.0202598734001256
303,4.378,0.030862419813215
304,4.385,0.0247607267522679
305,4.393,0.0239884623701309
306,4.401,0.0232926199841428
307,4.408,0.0437375150591555
308,4.416,0.0966215363942461
309,4.423,0.105200911014549
310,4.431,0.0366021139450354
311,4.438,0.028871425703018
312,4.446,0.0296597789264495
313,4.453,0.0285094267738913
314,4.461,0.0194956534386359
315,4.468,0.0277250957607834
316,4.476,0.0476712367556658
317,4.483,0.161186056509159
318,4.491,0.261777514492828
319,4.498,0.270686710359669
320,4.506,0.669826729614795
321,4.514,1.80431930686697
322,4.521,3.27913914402216
323,4.529,1.38550263470865
324,4.536,0.48255261694657
325,4.544,0.346903573782139
326,4.551,0.286003287272053
327,4.559,0.228791367628737
328,4.566,0.207312764500551
329,4.574,0.16409009236282
330,4.581,0.148737315557523
331,4.589,0.125999760598042
332,4.596,0.123135946847617
333,4.604,0.0918954392639806
334,4.611,0.103012828598495
335,4.619,0.0909461976276038
336,4.627,0.0871854309750095
337,4.634,0.0817554470381087
338,4.642,0.0875072078008999
339,4.649,0.0866182993193777
340,4.657,0.0725606742382899
341,4.664,0.0736828709185827
342,4.672,0.0701312592028172
343,4.679,0.0486566782849553
344,4.687,0.0527593328150581
345,4.694,0.0564838995747398
346,4.702,0.0591506250193066
347,4.709,0.0730835615803618
348,4.717,0.0778337919725692
349,4.725,0.105619220888207
350,4.732,0.107883725300411
351,4.740,0.143339509303212
352,4.747,0.2864537748283
353,4.755,0.281964988107129
354,4.762,0.118739670963889
355,4.770,0.0740770475302985
356,4.777,0.0608922420894385
357,4.785,0.0902181775590268
358,4.792,0.0650069632505123
359,4.800,0.045961797368123
360,4.807,0.0518100911786814
361,4.815,0.0876077630589907
362,4.822,0.0883961162824222
363,4.830,0.0637439892088924
364,4.838,0.0566648990393031
365,4.845,0.0721624754162505
366,4.853,0.25448926938641
367,4.860,0.41559890389942
368,4.868,0.16996251943532
369,4.875,0.0784894122553209
370,4.883,0.0854357694842304
371,4.890,0.0609002865100858
372,4.898,0.0651195851395739
373,4.905,0.0428083844743969
374,4.913,0.0520594682187465
375,4.920,0.0600355112905053
376,4.928,0.0689969958915535
377,4.936,0.0441678915637839
378,4.943,0.0887058264773418
379,4.951,0.0768362838123089
380,4.958,0.137358482551973
381,4.966,0.315441844630703
382,4.973,0.184160921877735
383,4.981,0.0559569900223442
384,4.988,0.0299332892284564
385,4.996,0.0392728615999259
386,5.003,0.0310273304364838
387,5.011,0.119620535024764
388,5.018,0.475630392979602
389,5.026,0.493682072912055
390,5.033,0.17899238161187
391,5.041,0.128344709216718
392,5.049,0.10358398246445
393,5.056,0.0750464002182934
394,5.064,0.0579640729738357
395,5.071,0.046549040075373
396,5.079,0.0578393844538031
397,5.086,0.0344542536322168
398,5.094,0.0484917676616864
399,5.101,0.0285335600358331
400,5.109,0.0374628669542922
401,5.116,0.03178752818765
402,5.124,0.0476833033866367
403,5.131,0.0233529531389973
404,5.139,0.0235057971312952
405,5.147,0.157562045007568
406,5.154,0.627171189132696
407,5.162,0.466540197648198
408,5.169,0.221181345696428
409,5.177,0.17529194811413
410,5.184,0.144055462740818
411,5.192,0.155092407868859
412,5.199,0.343484695007053
413,5.207,0.347108706508644
414,5.214,0.139888452845537
415,5.222,0.0888828037315815
416,5.229,0.0851220370789872
417,5.237,0.110884294201839
418,5.244,0.879243110114604
419,5.252,2.28511019569179
420,5.260,1.25681603761442
421,5.267,0.53877105063995
422,5.275,0.42737593572701
423,5.282,0.374829780059104
424,5.290,0.372979563310234
425,5.297,0.9093533765973
426,5.305,0.885292514441344
427,5.312,0.331019865214123
428,5.320,0.196907306393319
429,5.327,0.175931479555588
430,5.335,0.152309038324907
431,5.342,0.171350181996973
432,5.350,0.159685772058445
433,5.358,0.144807616071337
434,5.365,0.124032899749786
435,5.373,0.110699272526952
436,5.380,0.0954068288765098
437,5.388,0.0936692340167015
438,5.395,0.102703118403575
439,5.403,0.0837786188308947
440,5.410,0.0825518446821875
441,5.418,0.0647616084207708
442,5.425,0.0737472262837608
443,5.433,0.0805729172029614
444,5.440,0.0817031583039015
445,5.448,0.0638123667843941
446,5.455,0.0670019795710329
447,5.463,0.0518462910715941
448,5.471,0.0671990678768908
449,5.478,0.0684821529701288
450,5.486,0.0540826400115325
451,5.493,0.0621914160239711
452,5.501,0.0640174995108992
453,5.508,0.071080500839194
454,5.516,0.0989544183819517
455,5.523,0.118265050145701
456,5.531,0.131256789491026
457,5.538,0.0946224978634019
458,5.546,0.0906767095359206
459,5.553,0.0674967114408394
460,5.561,0.085222592337078
461,5.568,0.195169711533511
462,5.576,1.81472476497421
463,5.584,4.96402293753926
464,5.591,5.45572206076176
465,5.599,15.1650200273896
466,5.606,19.4235553185848
467,5.614,8.51349483741261
468,5.621,20.9161493031601
469,5.629,48.797600445854
470,5.636,76.480012510683
471,5.644,100
472,5.651,56.6825243649413
473,5.659,2.7116173339889
474,5.666,1.84261477135826
475,5.674,1.4803383097192
476,5.682,1.22939260762791
477,5.689,1.12412734124819
478,5.697,1.0516350445854
479,5.704,0.831720695140913
480,5.712,0.731760724178053
481,5.719,0.642745187505792
482,5.727,0.603778013890462
483,5.734,0.547869290392001
484,5.742,0.492121455306486
485,5.749,0.463000652563403
486,5.757,0.431329768475138
487,5.764,0.396034872885283
488,5.772,0.368933219724662
489,5.779,0.36236092805585
490,5.787,0.350250052771399
491,5.795,0.319701365363428
492,5.802,0.31774254893582
493,5.810,0.301331930815408
494,5.817,0.273140258657084
495,5.825,0.287748926552509
496,5.832,0.277190624452979
497,5.840,0.267344253580733
498,5.847,0.256367641607546
499,5.855,0.248266910015754
500,5.862,0.23619625683454
501,5.870,0.233424953921559
502,5.877,0.220433214576233
503,5.885,0.211198219673178
504,5.893,0.200462940319409
505,5.900,0.207727052163885
506,5.908,0.202285001596013
507,5.915,0.189220862464862
508,5.923,0.175388481161898
509,5.930,0.178284472594911
510,5.938,0.178300561436206
511,5.945,0.166692462442209
512,5.953,0.169045455481533
513,5.960,0.160980923782654
514,5.968,0.160309214658608
515,5.975,0.170034919221146
516,5.983,0.15121499711688
517,5.990,0.156391581803392
518,5.998,0.140097607782366
519,6.006,0.153391012901964
520,6.013,0.149533713201602
521,6.021,0.139828119690682
522,6.028,0.151689617935068
523,6.036,0.12805913228374
524,6.043,0.145181681631434
525,6.051,0.132869695830802
526,6.058,0.15487118630106
527,6.066,0.180774220785238
528,6.073,0.143090132263147
529,6.081,0.134788290155174
530,6.088,0.127946510394679
531,6.096,0.126872580238269
532,6.104,0.127592555886199
533,6.111,0.128425153423191
534,6.119,0.143061976790881
535,6.126,0.129917393453257
536,6.134,0.131152212022612
537,6.141,0.14322688741415
538,6.149,0.140194140830133
539,6.156,0.131421700114295
540,6.164,0.105973175396686
541,6.171,0.116105123201911
542,6.179,0.130005882080377
543,6.186,0.114637016433786
544,6.194,0.10878067820258
545,6.201,0.110880271991515
546,6.209,0.103845426135486
547,6.217,0.113820507738089
548,6.224,0.0993727282556092
549,6.232,0.100398391888135
550,6.239,0.0910708861476364
551,6.247,0.103668448881246
552,6.254,0.10637539642905
553,6.262,0.106085797285748
554,6.269,0.111093449138668
555,6.277,0.148170183901892
556,6.284,0.148359227787102
557,6.292,0.104782601140892
558,6.299,0.109922985934491
559,6.307,0.113551019646406
560,6.314,0.109038099663293
561,6.322,0.103531693730243
562,6.330,0.0894016688633298
563,6.337,0.0966537140768352
564,6.345,0.0945661869188711
565,6.352,0.0971404015259944
566,6.360,0.091553551386472
567,6.367,0.0778659696551582
568,6.375,0.087245764129864
569,6.382,0.0830103766590813
570,6.390,0.0774154820989116
571,6.397,0.0811239600172987
572,6.405,0.0842411730181122
573,6.412,0.102397430418979
574,6.420,0.0957286057024002
575,6.428,0.0976311111854773
576,6.435,0.0658596718391219
577,6.443,0.0915615958071193
578,6.450,0.0857092797862372
579,6.458,0.0884846049095421
580,6.465,0.106729350937529
581,6.473,0.105245155328109
582,6.480,0.0993325061523729
583,6.488,0.108527278952192
584,6.495,0.0918069506368607
585,6.503,0.094610431232431
586,6.510,0.0958010054882256
587,6.518,0.0870647646653006
588,6.525,0.0905037544920045
589,6.533,0.0988216854412719
590,6.541,0.104605623886652
591,6.548,0.102127942327296
592,6.556,0.111869735731128
593,6.563,0.125303918212054
594,6.571,0.129655949782221
595,6.578,0.133678160105852
596,6.586,0.181184486238249
597,6.593,0.195692598875583
598,6.601,0.189160529310008
599,6.608,0.289430210467786
600,6.616,0.298966871145114
601,6.623,0.193641271610532
602,6.631,0.151979217078369
603,6.639,0.125062585592636
604,6.646,0.127057601913156
605,6.654,0.120843286963148
606,6.661,0.0935727009689344
607,6.669,0.107976236137854
608,6.676,0.119254513885314
609,6.684,0.104219491695584
610,6.691,0.106186352543839
611,6.699,0.0863769666999599
612,6.706,0.0969915797440201
613,6.714,0.0789720774941565
614,6.721,0.0818881799787885
615,6.729,0.0788433667638004
616,6.736,0.0673036453453052
617,6.744,0.0721061644717197
618,6.752,0.0733248941997797
619,6.759,0.0597539565678512
620,6.767,0.0747447344440211
621,6.774,0.0617690839399899
622,6.782,0.075573309770689
623,6.789,0.057417052369822
624,6.797,0.075464710091951
625,6.804,0.0742500025742146
626,6.812,0.0726491628654098
627,6.819,0.0627303922073375
628,6.827,0.0592471580670737
629,6.834,0.0529926210138287
630,6.842,0.0661211155101579
631,6.850,0.0813612704263929
632,6.857,0.0742862024671273
633,6.865,0.0694756389200655
634,6.872,0.111149760083199
635,6.880,0.133843070729121
636,6.887,0.116008590154144
637,6.895,0.102393408208656
638,6.902,0.0983068425198472
639,6.910,0.0885167825921312
640,6.917,0.131928498615073
641,6.925,0.183348435392362
642,6.932,0.148314983473542
643,6.940,0.104834889875099
644,6.947,0.0855041470597321
645,6.955,0.0865257884819342
646,6.963,0.0794386538916976
647,6.970,0.0905841986984771
648,6.978,0.0971926902602016
649,6.985,0.11807600626049
650,6.993,0.150197377905001
651,7.000,0.137125194353203
652,7.008,0.125428606732086
653,7.015,0.0971202904743763
654,7.023,0.0997226605537651
655,7.030,0.14061245070379
656,7.038,0.158406709175531
657,7.045,0.111648514163329
658,7.053,0.111668625214947
659,7.060,0.115175992617153
660,7.068,0.11472952727123
661,7.076,0.103704648774159
662,7.083,0.100132926006775
663,7.091,0.145978079275513
664,7.098,0.155092407868859
665,7.106,0.132535852373941
666,7.113,0.144980571115253
667,7.121,0.148894181760145
668,7.128,0.144260595467323
669,7.136,0.145185703841758
670,7.143,0.132668585314621
671,7.151,0.115646591225017
672,7.158,0.137784836846278
673,7.166,0.142583333762369
674,7.174,0.140407317977285
675,7.181,0.14300566584635
676,7.189,0.170831316865224
677,7.196,0.194493980199141
678,7.204,0.153744967410443
679,7.211,0.122472282144218
680,7.219,0.103177739221763
681,7.226,0.145849368545157
682,7.234,0.181824017679706
683,7.241,0.15722015713006
684,7.249,0.169029366640238
685,7.256,0.214130410999104
686,7.264,0.202638956104493
687,7.271,0.143150465418001
688,7.279,0.114637016433786
689,7.287,0.107714792466818
690,7.294,0.115509836074014
691,7.302,0.128984240658175
692,7.309,0.186031249678223
693,7.317,0.234366151137288
694,7.324,0.257296772192304
695,7.332,0.216833336336584
696,7.339,0.187254001616607
697,7.347,0.1377204814811
698,7.354,0.129531261262189
699,7.362,0.138657656486506
700,7.369,0.113844641000031
701,7.377,0.11812025057405
702,7.385,0.105615198677883
703,7.392,0.124744830977069
704,7.400,0.109110499449118
705,7.407,0.0995336166685544
706,7.415,0.116056856678028
