#"+EI TIC Scan ACN-PA.d "
#Point,X(Minutes),Y(Counts)
0,2.095,0.147556920963116
1,2.102,0.136086064916513
2,2.110,0.108246328891563
3,2.117,0.103458905500212
4,2.125,0.109391834488503
5,2.132,0.0892704361753511
6,2.140,0.0847832142507848
7,2.147,0.0876746283782343
8,2.155,0.0985766816456665
9,2.162,0.096301470528985
10,2.170,0.0977787777471081
11,2.178,0.0615887009223927
12,2.185,0.0649146171728195
13,2.193,0.0750977669276892
14,2.200,0.0653807194501952
15,2.208,0.0699153416063591
16,2.215,0.0763775731808226
17,2.223,0.0639034122320722
18,2.230,0.068438034388236
19,2.238,0.0588473875283355
20,2.245,0.0652385187554026
21,2.253,0.0433080116029447
22,2.260,0.0636901111898833
23,2.268,0.0641167132742611
24,2.275,0.0512080502025333
25,2.283,0.0604194952096536
26,2.291,0.0566195766432515
27,2.298,0.0539809637509889
28,2.306,0.0406535986334829
29,2.313,0.0657520212643759
30,2.321,0.0341755669818203
31,2.328,0.0436714133785258
32,2.336,0.0575438811594033
33,2.343,0.054478666182763
34,2.351,0.0325165588759067
35,2.358,0.0437346136873225
36,2.366,0.0735572594007694
37,2.373,0.0469420293587554
38,2.381,0.118081876948051
39,2.389,0.307793403878571
40,2.396,0.252295632716461
41,2.404,0.0939788591807059
42,2.411,0.0585629861387503
43,2.419,0.0614623003047993
44,2.426,0.0380307858184195
45,2.434,0.0570540787662288
46,2.441,0.0272630332071802
47,2.449,0.0379596854710232
48,2.456,0.0220964079630493
49,2.464,0.0532067599682292
50,2.471,0.0662181235417516
51,2.479,0.026078027417242
52,2.486,0.0493199409772316
53,2.494,0.0490355395876464
54,2.502,0.0532857603542251
55,2.509,0.0448090189368665
56,2.517,0.0318450555949416
57,2.524,0.0390103906047685
58,2.532,0.0319398560581367
59,2.539,0.0428814095185669
60,2.547,0.0627816067509306
61,2.554,0.0440585152699056
62,2.562,0.0456622231056221
63,2.569,0.0748370656539028
64,2.577,0.0518795534834983
65,2.584,0.0347285696837915
66,2.592,0.0650489178290125
67,2.600,0.0439716148453101
68,2.607,0.0289062412358947
69,2.615,0.0462547260005912
70,2.622,0.0348628703399845
71,2.630,0.0545813666845576
72,2.637,0.0477636333731127
73,2.645,0.0266310301192132
74,2.652,0.0426286082833801
75,2.660,0.0327456599952947
76,2.667,0.058223284478968
77,2.675,0.0438689143435155
78,2.682,0.0494147414404267
79,2.690,0.0737310602499604
80,2.697,0.0418307043848216
81,2.705,0.0741655623729378
82,2.713,0.0580336835525778
83,2.720,0.0641641135058586
84,2.728,0.0664472246611397
85,2.735,0.0768831756511962
86,2.743,0.0557347723200976
87,2.750,0.0349971709961775
88,2.758,0.0698521412975624
89,2.765,0.061967902775173
90,2.773,0.061391199957403
91,2.780,0.0487353381208621
92,2.788,0.053499061396414
93,2.795,0.0571567792680235
94,2.803,0.0618494021961791
95,2.811,0.0488064384682583
96,2.818,0.0410328004862632
97,2.826,0.0227995113984127
98,2.833,0.0528986584628452
99,2.841,0.0713452485928846
100,2.848,0.0417438039602261
101,2.856,0.0395238931137417
102,2.863,0.0707211455435171
103,2.871,0.0500151443739954
104,2.878,0.0531435596594325
105,2.886,0.0604194952096536
106,2.893,0.0559164732078881
107,2.901,0.0580099834367791
108,2.908,0.0716533500982686
109,2.916,0.0621101034699656
110,2.924,0.0694887395219813
111,2.931,0.0788423852238942
112,2.939,1.13829286169892
113,2.946,8.48316414874003
114,2.954,25.6433277932996
115,2.961,60.2358272122518
116,2.969,100
117,2.976,68.0644020626685
118,2.984,3.75300023715916
119,2.991,0.231573831469741
120,2.999,0.156942166819427
121,3.006,0.116778370579119
122,3.014,0.107274624143814
123,3.021,0.0840248105452243
124,3.029,0.0887411335891787
125,3.037,0.112986352051316
126,3.044,0.0969887738871492
127,3.052,0.0561771744816745
128,3.059,0.0737468603271595
129,3.067,0.1229009004938
130,3.074,0.0787712848764979
131,3.082,0.0513897510903238
132,3.089,0.0640693130426635
133,3.097,0.0376831841200376
134,3.104,0.0488538386998559
135,3.112,0.0709581467015048
136,3.119,0.0858971196933268
137,3.127,0.0772386773881777
138,3.135,0.0516425523255107
139,3.142,0.044184915887499
140,3.150,0.0501020447985909
141,3.157,0.0685802350830286
142,3.165,0.0565879764888531
143,3.172,0.0393816924189492
144,3.180,0.0624261050139491
145,3.187,0.033527763816654
146,3.195,0.0350761713821734
147,3.202,0.0435608128381315
148,3.210,0.0511211497779378
149,3.217,0.0485457371944719
150,3.225,0.0474397317905295
151,3.232,0.0457570235688172
152,3.240,0.0589737881459289
153,3.248,0.0574016804646107
154,3.255,0.0331643620410729
155,3.263,0.0455358224880287
156,3.270,0.033970165978231
157,3.278,0.022831111552811
158,3.285,0.0558690729762906
159,3.293,0.0242294183849382
160,3.300,0.0546287669161551
161,3.308,0.0607512968308363
162,3.315,0.0683748340794393
163,3.323,0.0429920100589611
164,3.330,0.0242452184621374
165,3.338,0.0389708904117705
166,3.346,0.0218199066120637
167,3.353,0.0335830640868511
168,3.361,0.0209904025591069
169,3.368,0.0448801192842628
170,3.376,0.0283927387269214
171,3.383,0.0453541216002381
172,3.391,0.0229970123634024
173,3.398,0.0378253848148302
174,3.406,0.0179409876596657
175,3.413,0.0468235287797616
176,3.421,0.0119132582081796
177,3.428,0.0337094647044445
178,3.436,0.0328957607286869
179,3.443,0.0278950362951473
180,3.451,0.0310787518507815
181,3.459,0.0368852802214792
182,3.466,0.0364586781371014
183,3.474,0.0246402203921168
184,3.481,0.0653886194887948
185,3.489,0.114281958381649
186,3.496,0.0771122767705843
187,3.504,0.042091405658608
188,3.511,0.0190469930636081
189,3.519,0.0140857688230665
190,3.526,0.032010956405533
191,3.534,0.0472027306325419
192,3.541,0.0154366754235961
193,3.549,0.0351946719611672
194,3.557,0.0155709760797891
195,3.564,0.0230760127493983
196,3.572,0.0463969266953838
197,3.579,0.0258331262206547
198,3.587,0.0139593682054731
199,3.594,0
200,3.602,0.0223729093140349
201,3.609,0.0315843543211552
202,3.617,0.0316238545141532
203,3.624,0.0297278452502519
204,3.632,0.0164478803643435
205,3.639,0.0132641648087093
206,3.647,0.0142279695178591
207,3.654,0.0169692829119163
208,3.662,0.0386311887519882
209,3.670,0.020911402173111
210,3.677,0.025058922437895
211,3.685,0.0176170860770826
212,3.692,0.238936667444557
213,3.700,1.19985786250552
214,3.707,0.68304523735903
215,3.715,0.398517447156247
216,3.722,0.353992829608965
217,3.730,1.40258075300956
218,3.737,3.59172884918716
219,3.745,6.40317088589295
220,3.752,6.73562031024084
221,3.760,0.988879431664903
222,3.768,0.598420023880237
223,3.775,0.467073982123477
224,3.783,0.401827563329474
225,3.790,0.345468687960009
226,3.798,0.288256608421789
227,3.805,0.273791637745942
228,3.813,0.262929084671508
229,3.820,0.245564799829612
230,3.828,0.194459450128873
231,3.835,0.17974167821784
232,3.843,0.195123053371239
233,3.850,0.149445030188417
234,3.858,0.159083077279916
235,3.865,0.134379656579002
236,3.873,0.154698555857144
237,3.881,0.138503476727987
238,3.888,0.145874212741403
239,3.896,0.131172240907569
240,3.903,0.105212714069321
241,3.911,0.127664623769352
242,3.918,0.0990743840774406
243,3.926,0.126637618751405
244,3.933,0.128312426934518
245,3.941,0.103443105423013
246,3.948,0.116628269845726
247,3.956,0.122363697869028
248,3.963,0.129386832184062
249,3.971,0.168926525375003
250,3.978,0.112267448538754
251,3.986,0.0758877707876481
252,3.994,0.081496798193356
253,4.001,0.100488490986767
254,4.009,0.0825712034429
255,4.016,0.0694729394447821
256,4.024,0.0625683057087417
257,4.031,0.0867740239778811
258,4.039,0.0643774145480475
259,4.046,0.0849412150227766
260,4.054,0.0501731451459872
261,4.061,0.0793005874626703
262,4.069,0.0623392045893536
263,4.076,0.077617879240958
264,4.084,0.0519506538308946
265,4.092,0.0648593169026224
266,4.099,0.0497228429458106
267,4.107,0.0597953921602861
268,4.114,0.0623234045121544
269,4.122,0.0806198939088016
270,4.129,0.077444078391767
271,4.137,0.057338480155814
272,4.144,0.0458676241092114
273,4.152,0.0684222343110368
274,4.159,0.0339227657466334
275,4.167,0.0502837456863814
276,4.174,0.0789055855326909
277,4.182,0.0636427109582857
278,4.189,0.042668108476378
279,4.197,0.0446036179332772
280,4.205,0.0496675426756135
281,4.212,0.0396502937313352
282,4.220,0.0518795534834983
283,4.227,0.0270339320877922
284,4.235,0.0361110764387195
285,4.242,0.0449354195544599
286,4.250,0.0642431138918545
287,4.257,0.0490908398578435
288,4.265,0.0428893095571665
289,4.272,0.0329036607672865
290,4.280,0.0358266750491343
291,4.287,0.0439321146523122
292,4.295,0.0305178491102107
293,4.303,0.0806198939088016
294,4.310,0.0239766171497514
295,4.318,0.0481823354188909
296,4.325,0.0552686700427218
297,4.333,0.0513107507043279
298,4.340,0.0552291698497239
299,4.348,0.0479137341065048
300,4.355,0.0332038622340709
301,4.363,0.0490118394718477
302,4.370,0.0335672640096519
303,4.378,0.0324691586443091
304,4.385,0.0447853188210678
305,4.393,0.0322874577565186
306,4.400,0.0372249818812615
307,4.408,0.0643932146252467
308,4.416,0.166351112791537
309,4.423,0.203844695985185
310,4.431,0.0639982126952672
311,4.438,0.0563193751764671
312,4.446,0.0403375970894994
313,4.453,0.0274842342879687
314,4.461,0.062062703238368
315,4.468,0.027958236603944
316,4.476,0.0328878606900873
317,4.483,0.0247982211641086
318,4.491,0.0217804064190658
319,4.498,0.0564931760256581
320,4.506,0.0515240517465168
321,4.514,0.0398951949279224
322,4.521,0.0313078529701696
323,4.529,0.042668108476378
324,4.536,0.0309049510015906
325,4.544,0.0406851987878813
326,4.551,0.0527959579610506
327,4.559,0.0590211883775264
328,4.566,0.014844172528627
329,4.574,0.0388602898713763
330,4.581,0.053364760740221
331,4.589,0.0366087788704936
332,4.596,0.0413883022232447
333,4.604,0.0412619016056512
334,4.611,0.040171696278908
335,4.619,0.0224598097386304
336,4.627,0.0464206268111826
337,4.634,0.0204294998185361
338,4.642,0.0597795920830869
339,4.649,0.0459387244566077
340,4.657,0.0344599683714055
341,4.664,0.0235184149109753
342,4.672,0.0345942690275985
343,4.679,0.0506313473847633
344,4.687,0.018683591288027
345,4.694,0.027997736796942
346,4.702,0.0346653693749948
347,4.709,0.0270892323579893
348,4.717,0.0425259077815854
349,4.724,0.0345863689889989
350,4.732,0.0439795148839097
351,4.740,0.0411671011424562
352,4.747,0.0447458186280698
353,4.755,0.0528433581926481
354,4.762,0.0404007973982961
355,4.770,0.0329036607672865
356,4.777,0.0292854430886749
357,4.785,0.0586972867949433
358,4.792,0.0420993056972076
359,4.800,0.031473753780761
360,4.807,0.0502521455319831
361,4.815,0.0383704874782018
362,4.822,0.045836023954813
363,4.830,0.0417043037672282
364,4.838,0.0782735824447238
365,4.845,0.0787396847220996
366,4.853,0.0487116380050633
367,4.860,0.185224305005954
368,4.868,0.71952761561193
369,4.875,0.774606684728262
370,4.883,0.451992808436862
371,4.890,0.50809888257114
372,4.898,3.20284944912241
373,4.905,5.81584251620653
374,4.913,1.61146567362128
375,4.920,0.514584814261402
376,4.928,0.368773801828796
377,4.935,0.27883186237248
378,4.943,0.209682824510281
379,4.951,0.180334181112809
380,4.958,0.15496715716953
381,4.966,0.138384976148993
382,4.973,0.133502752294448
383,4.981,0.102882202682442
384,4.988,0.111667045605185
385,4.996,0.104335809784767
386,5.003,0.101294294923925
387,5.011,0.0954719664760282
388,5.018,0.0956457673252191
389,5.026,0.062908007368524
390,5.033,0.0794822883504609
391,5.041,0.0694255392131846
392,5.049,0.0624814052841462
393,5.056,0.069417639174585
394,5.064,0.0579783832823807
395,5.071,0.0760220714438411
396,5.079,0.0617546017329841
397,5.086,0.0539967638281881
398,5.094,0.0660680228083594
399,5.101,0.064156213467259
400,5.109,0.0731938576251883
401,5.116,0.0593924901917071
402,5.124,0.0660838228855586
403,5.131,0.0576307815839988
404,5.139,0.0573147800400153
405,5.146,0.0510658495077407
406,5.154,0.0358424751263335
407,5.162,0.0448090189368665
408,5.169,0.0279187364109461
409,5.177,0.0500072443353958
410,5.184,0.0674347294860883
411,5.192,0.0535069614350136
412,5.199,0.0544154658739663
413,5.207,0.0468709290113591
414,5.214,0.107661726035193
415,5.222,0.0544312659511654
416,5.229,0.0415463029952364
417,5.237,0.07124254809109
418,5.244,0.0723327534178332
419,5.252,0.0582627846719659
420,5.260,0.0526063570346605
421,5.267,0.0451961208282464
422,5.275,0.0513186507429275
423,5.282,0.057377980348812
424,5.290,0.0409696001774665
425,5.297,0.0565010760642576
426,5.305,0.0454884222564311
427,5.312,0.0257383257574596
428,5.320,0.0390893909907644
429,5.327,0.0364112779055038
430,5.335,0.0338200652448388
431,5.342,0.0396976939629327
432,5.350,0.0438452142277167
433,5.357,0.0435529127995319
434,5.365,0.0429525098659632
435,5.373,0.0580257835139782
436,5.380,0.00704683443083303
437,5.388,0.0420124052726122
438,5.395,0.0408352995212735
439,5.403,0.0146308714864381
440,5.410,0.0228785117844086
441,5.418,0.0457886237232155
442,5.425,0.0493594411702296
443,5.433,0.065846821727571
444,5.440,0.0807620946035942
445,5.448,0.0713136484384863
446,5.455,0.0424311073183904
447,5.463,0.0870189251744684
448,5.471,0.0512475503955312
449,5.478,0.0535859618210095
450,5.486,0.0372644820742594
451,5.493,0.0492567406684349
452,5.501,0.0391446912609615
453,5.508,0.0379122852394257
454,5.516,0.0432764114485463
455,5.523,0.0524957564942662
456,5.531,0.0318292555177425
457,5.538,0.039594993461138
458,5.546,0.0570540787662288
459,5.553,0.0605379957886474
460,5.561,0.0351630718067688
461,5.568,0.0208640019415135
462,5.576,0.0487353381208621
463,5.584,0.0633425094915014
464,5.591,0.0729173562742027
465,5.599,0.0606169961746433
466,5.606,0.0403533971666985
467,5.614,0.150645836055555
468,5.621,0.244695795583657
469,5.629,0.258623563634732
470,5.636,0.169100326224194
471,5.644,0.128004325429134
472,5.651,0.114376758844844
473,5.659,0.0932046553979463
474,5.666,0.0680035322652586
475,5.674,0.0709265465471064
476,5.681,0.0554503709305124
477,5.689,0.101823597510097
478,5.697,0.110726941011834
479,5.704,0.0725144543056237
480,5.712,0.0549921686917362
481,5.719,0.0494937418264226
482,5.727,0.0468235287797616
483,5.734,0.0711951478594924
484,5.742,0.0638639120390742
485,5.749,0.0496833427528127
486,5.757,0.0409854002546656
487,5.764,0.0346969695293931
488,5.772,0.0571330791522247
489,5.779,0.0626552061333372
490,5.787,0.0416648035742303
491,5.795,0.0694413392903838
492,5.802,0.0481112350714946
493,5.810,0.0618415021575795
494,5.817,0.0316949548615495
495,5.825,0.0528907584242457
496,5.832,0.050331145917979
497,5.840,0.0466971281621682
498,5.847,0.0507261478479584
499,5.855,0.0624972053613454
500,5.862,0.0612410992240108
501,5.870,0.0598269923146844
502,5.877,0.0328957607286869
503,5.885,0.0438057140347188
504,5.892,0.0230286125178008
505,5.900,0.0479611343381024
506,5.908,0.0460809251514003
507,5.915,0.0487037379664637
508,5.923,0.0347917699925882
509,5.930,0.0471474303623447
510,5.938,0.0305020490330116
511,5.945,0.0421941061604027
512,5.953,0.0241583180375419
513,5.960,0.0499993442967962
514,5.968,0.0597637920058877
515,5.975,0.0643142142392508
516,5.983,0.0469183292429567
517,5.990,0.0595820911180972
518,5.998,0.0807699946421938
519,6.006,0.0776257792795575
520,6.013,0.0942000602614944
521,6.021,0.0744815639169213
522,6.028,0.0647487163622281
523,6.036,0.0459150243408089
524,6.043,0.0650568178676121
525,6.051,0.0563667754080646
526,6.058,0.0620074029681709
527,6.066,0.063042308024717
528,6.073,0.0518479533291
529,6.081,0.0546366669547547
530,6.088,0.0541231644457815
531,6.096,0.09562996724802
532,6.103,0.107606425764996
533,6.111,0.0910242447444598
534,6.119,0.0531040594664345
535,6.126,0.0649857175202158
536,6.134,0.031473753780761
537,6.141,0.0768041752652003
538,6.149,0.0747896654223053
539,6.156,0.046412726772583
540,6.164,0.0530092590032395
541,6.171,0.0365376785230973
542,6.179,0.0883461316591993
543,6.186,0.0573542802330132
544,6.194,0.0538150629403975
545,6.201,0.0280609371057387
546,6.209,0.0386153886747891
547,6.217,0.046412726772583
548,6.224,0.0408747997142714
549,6.232,0.0418544045006204
550,6.239,0.0542811652177733
551,6.247,0.043916314575113
552,6.254,0.0374382829234504
553,6.262,0.0309207510787898
554,6.269,0.0507735480795559
555,6.277,0.0541231644457815
556,6.284,0.0347048695679927
557,6.292,0.0343098676380133
558,6.299,0.07316225747079
559,6.307,0.0570856789206272
560,6.314,0.0375093832708467
561,6.322,0.0756349695524612
562,6.330,0.0629791077159203
563,6.337,0.0685960351602278
564,6.345,0.0545181663757609
565,6.352,0.0710608472032994
566,6.360,0.0375646835410438
567,6.367,0.04570172329862
568,6.375,0.0526142570732601
569,6.382,0.0492251405140365
570,6.390,0.0668896268227167
571,6.397,0.0215908054926756
572,6.405,0.0343177676766129
573,6.412,0.0626631061719368
574,6.420,0.0589263879143313
575,6.427,0.0523298556836749
576,6.435,0.0603720949780561
577,6.443,0.0204294998185361
578,6.450,0.0540520640983852
579,6.458,0.0366166789090931
580,6.465,0.0578282825489885
581,6.473,0.0389550903345714
582,6.480,0.0634294099160968
583,6.488,0.0400057954683167
584,6.495,0.0426602084377784
585,6.503,0.0618731023119779
586,6.510,0.0574411806576087
587,6.518,0.0397450941945302
588,6.525,0.030494148994412
589,6.533,0.0412777016828504
590,6.541,0.0218831069208604
591,6.548,0.0394369926891463
592,6.556,0.024924621781702
593,6.563,0.0307390501909992
594,6.571,0.0563035750992679
595,6.578,0.0216303056856736
596,6.586,0.0374856831550479
597,6.593,0.0651279182150084
598,6.601,0.0390103906047685
599,6.608,0.0498650436406032
600,6.616,0.0364823782529001
601,6.623,0.0762116723702312
602,6.631,0.0335672640096519
603,6.638,0.0649067171342199
604,6.646,0.0626631061719368
605,6.654,0.036024176014124
606,6.661,0.0354158730419557
607,6.669,0.0462468259619916
608,6.676,0.0512633504727304
609,6.684,0.040882699752871
610,6.691,0.0497386430230098
611,6.699,0.0323111578723174
612,6.706,0.0156420764271854
613,6.714,0.0309760513489869
614,6.721,0.0640772130812631
615,6.729,0.0510658495077407
616,6.736,0.0429525098659632
617,6.744,0.0501810451845868
618,6.752,0.0506313473847633
619,6.759,0.0504417464583732
620,6.767,0.0341676669432207
621,6.774,0.0427550089009735
622,6.782,0.0419097047708175
623,6.789,0.0482060355346896
624,6.797,0.0427313087851747
625,6.804,0.0402901968579018
626,6.812,0.036735179488087
627,6.819,0.0617151015399861
628,6.827,0.0530803593506358
629,6.834,0.0208640019415135
630,6.842,0.0510579494691411
631,6.849,0.0508762485813506
632,6.857,0.045836023954813
633,6.865,0.0528670583084469
634,6.872,0.0419018047322179
635,6.880,0.0649936175588154
636,6.887,0.0292222427798782
637,6.895,0.0667000258963265
638,6.902,0.0730121567373978
639,6.910,0.0378174847762306
640,6.917,0.091845848758817
641,6.925,0.119093081888798
642,6.932,0.0770727765775863
643,6.940,0.0649541173658174
644,6.947,0.042841909325569
645,6.955,0.0513818510517242
646,6.963,0.0426760085149776
647,6.970,0.0439242146137126
648,6.978,0.0771201768091839
649,6.985,0.0979209784419007
650,6.993,0.162124592140757
651,7.000,0.182475091573297
652,7.008,0.0929044539311619
653,7.015,0.0770569765003872
654,7.023,0.0849570150999758
655,7.030,0.0890018348629651
656,7.038,0.108364829470557
657,7.045,0.113152252861907
658,7.053,0.0848306144823824
659,7.060,0.0817574994671424
660,7.068,0.0566748769134486
661,7.076,0.0924699518081845
662,7.083,0.0632319089511071
663,7.091,0.0382203867448096
664,7.098,0.0751372671206871
665,7.106,0.0696230401781743
666,7.113,0.0473528313659341
667,7.121,0.0919011490290142
668,7.128,0.154469454737756
669,7.136,0.12922883141207
670,7.143,0.11003963765367
671,7.151,0.0790556862660831
672,7.158,0.112488649619542
673,7.166,0.114953461662614
674,7.174,0.111232543482207
675,7.181,0.0993034851968287
676,7.189,0.182182790145113
677,7.196,0.276098449017022
678,7.204,0.202422689037259
679,7.211,0.111493244755994
680,7.219,0.113191753054905
681,7.226,0.126455917863615
682,7.234,0.214233246743644
683,7.241,0.216350457088333
684,7.249,0.166643414219722
685,7.256,0.131322341640961
686,7.264,0.122482198448022
687,7.271,0.116999571659907
688,7.279,0.111651245527986
689,7.287,0.0982843802174817
690,7.294,0.094879463581059
691,7.302,0.117315573203891
692,7.309,0.0866555233988873
693,7.317,0.0611383987222162
694,7.324,0.0784789834483131
695,7.332,0.0726645550390159
696,7.339,0.0705947449259237
697,7.347,0.0591554890337194
698,7.354,0.0740391617553443
