#"+EI TIC Scan ACN-PEEK-1Week.d "
#Point,X(Minutes),Y(Counts)
0,2.095,0.144580719448365
1,2.102,0.124264658448928
2,2.110,0.125210208047422
3,2.117,0.138925095681666
4,2.125,0.130600724450057
5,2.132,0.0942633417490193
6,2.140,0.133393188684864
7,2.148,0.0930085002257831
8,2.155,0.091603431196244
9,2.163,0.105053211466424
10,2.170,0.115569136907629
11,2.178,0.0892263018318035
12,2.185,0.0855236356470431
13,2.193,0.0792759387672684
14,2.200,0.111769264689378
15,2.208,0.0776676207586136
16,2.215,0.0790903636124236
17,2.223,0.0761299980470424
18,2.230,0.047109578594171
19,2.238,0.0518108158502391
20,2.245,0.080707518533214
21,2.253,0.0674874979785563
22,2.261,0.0675670301877755
23,2.268,0.0647480552165618
24,2.276,0.0814674929768641
25,2.283,0.0772434489761112
26,2.291,0.0588008133493929
27,2.298,0.0611867796259689
28,2.306,0.068238635510071
29,2.313,0.0719943231676442
30,2.321,0.0681502663887163
31,2.328,0.0636434411996285
32,2.336,0.0739384438374468
33,2.343,0.0814056345919158
34,2.351,0.0452273163093167
35,2.358,0.0661266135096945
36,2.366,0.0487355704270968
37,2.374,0.0850552793038634
38,2.381,0.190744748444041
39,2.389,0.443259512714991
40,2.396,0.268085403453642
41,2.404,0.0968260462683046
42,2.411,0.0734965982306734
43,2.419,0.0564060101606816
44,2.426,0.0645448062374461
45,2.434,0.0620086124545672
46,2.441,0.0629276513166557
47,2.449,0.0642620250491111
48,2.456,0.0783127153445026
49,2.464,0.0765276590931384
50,2.472,0.0532600694404556
51,2.479,0.0795852306920097
52,2.487,0.0682297985979355
53,2.494,0.0694051079119525
54,2.502,0.0728338298205135
55,2.509,0.0687865240624699
56,2.517,0.0652517592082834
57,2.524,0.0587743026129865
58,2.532,0.0666126436771452
59,2.539,0.0574841134412085
60,2.547,0.0669484463382929
61,2.554,0.0704301897196666
62,2.562,0.0809196044244652
63,2.569,0.0524117258754508
64,2.577,0.0860803611115775
65,2.585,0.0556725464534379
66,2.592,0.0666214805892806
67,2.600,0.0768811355785571
68,2.607,0.0861333825843903
69,2.615,0.047109578594171
70,2.622,0.0822186305083787
71,2.630,0.0659145276184433
72,2.637,0.0708101769414917
73,2.645,0.061814200387587
74,2.652,0.0866635973125183
75,2.660,0.0927964143345319
76,2.667,0.0731254479209839
77,2.675,0.0851878329858954
78,2.683,0.0562734564786496
79,2.690,0.0537902841685835
80,2.698,0.0700502024978416
81,2.705,0.0708808722385754
82,2.713,0.0752286330092248
83,2.720,0.0892439756560744
84,2.728,0.0754849034611534
85,2.735,0.0915415728112957
86,2.743,0.063519724429732
87,2.750,0.0774908825159042
88,2.758,0.101191480863225
89,2.765,0.0883867951789342
90,2.773,0.0765895174780867
91,2.780,0.0609393460861758
92,2.788,0.0672930859115761
93,2.796,0.093308955238389
94,2.803,0.0833144076131765
95,2.811,0.0875826361746068
96,2.818,0.0490536992639736
97,2.826,0.0908876413132712
98,2.833,0.0658438323213596
99,2.841,0.0693962709998171
100,2.848,0.0859743181659519
101,2.856,0.0598170582449716
102,2.863,0.0809196044244652
103,2.871,0.0776411100222072
104,2.878,0.0979925186701861
105,2.886,0.0901806883424339
106,2.894,0.0701650823556026
107,2.901,0.0807958876545686
108,2.909,0.0767485818965251
109,2.916,0.0859301336052746
110,2.924,0.088837477697843
111,2.931,0.461163096701446
112,2.939,7.68568340701845
113,2.946,31.771800883161
114,2.954,60.9076215716095
115,2.961,88.4684924316266
116,2.969,100
117,2.976,22.3487540395735
118,2.984,0.580081423308416
119,2.991,0.21830707739456
120,2.999,0.183206862392488
121,3.007,0.154698983843474
122,3.014,0.139455310409794
123,3.022,0.151773965926634
124,3.029,0.158657920480162
125,3.037,0.140869216351469
126,3.044,0.126261800591543
127,3.052,0.128727299077338
128,3.059,0.123345619586839
129,3.067,0.125581358357112
130,3.074,0.126641787813368
131,3.082,0.102790961959744
132,3.089,0.117990450832746
133,3.097,0.0761653456955843
134,3.104,0.1155868107319
135,3.112,0.117053738146387
136,3.120,0.153293914813934
137,3.127,0.111159517752031
138,3.135,0.10952468900697
139,3.142,0.0883426106182569
140,3.150,0.116523523418259
141,3.157,0.106988495224091
142,3.165,0.099203175632745
143,3.172,0.0748928303480771
144,3.180,0.0904899802671752
145,3.187,0.0922838734306749
146,3.195,0.0757146631766755
147,3.202,0.0867519664338729
148,3.210,0.085691536977617
149,3.218,0.104779267190224
150,3.225,0.0970116214231493
151,3.233,0.0966581449377307
152,3.240,0.108888431333216
153,3.248,0.154592940897848
154,3.255,0.152693004788723
155,3.263,0.153391120847425
156,3.270,0.0965432650799696
157,3.278,0.111292071434063
158,3.285,0.0847548242912576
159,3.293,0.0818916647593665
160,3.300,0.0945637967616252
161,3.308,0.0726659284899396
162,3.315,0.0946698397072508
163,3.323,0.0611425950652915
164,3.331,0.0467472651966169
165,3.338,0.0841980988267232
166,3.346,0.0607891185798729
167,3.353,0.0477193255315182
168,3.361,0.0666833389742289
169,3.368,0.054859550536975
170,3.376,0.0583589677426196
171,3.383,0.0294711019717802
172,3.391,0.0536754043108225
173,3.398,0.0566622806126101
174,3.406,0.0490095147032963
175,3.413,0.0503350515236162
176,3.421,0.0530391466370689
177,3.429,0.0539758593234283
178,3.436,0.056299967215056
179,3.444,0.0643238834340594
180,3.451,0.0430622728361274
181,3.459,0.0668865879533446
182,3.466,0.0683446784556966
183,3.474,0.0569538987130805
184,3.481,0.102216562670939
185,3.489,0.109188886345822
186,3.496,0.0734612505821316
187,3.504,0.0434245862336815
188,3.511,0.040287482425591
189,3.519,0.0502378454901261
190,3.526,0.0312384843988735
191,3.534,0.0416041823337755
192,3.542,0.0432390110788367
193,3.549,0.0341104808429
194,3.557,0.0449445351209817
195,3.564,0.0304961837794943
196,3.572,0.0353653223661362
197,3.579,0.0484969737994392
198,3.587,0.0404995683168422
199,3.594,0.0298334153693343
200,3.602,0.0518726742351873
201,3.609,0.0211820783887128
202,3.617,0.0424613628109157
203,3.624,0.0395186710698054
204,3.632,0.0552660484952064
205,3.640,0.0449887196816591
206,3.647,0.0388205550111036
207,3.655,0.0383875463164657
208,3.662,0.0337746781817523
209,3.670,0.0208904602882424
210,3.677,0.0404288730197584
211,3.685,0.0465970376903139
212,3.692,0.0348527814622792
213,3.700,0.0514043178920076
214,3.707,0.0663210255766748
215,3.715,0.0192379577189102
216,3.722,0.0337216567089395
217,3.730,0.051563382310446
218,3.737,0.0366201638893725
219,3.745,0.0443347881836346
220,3.753,0.0484704630630328
221,3.760,0.0488857979333997
222,3.768,0.043168315781753
223,3.775,0.0331384205079987
224,3.783,0.0434069124094106
225,3.790,0.0411623367270022
226,3.798,0.0541614344782731
227,3.805,0.0302752609761076
228,3.813,0.0374596705422418
229,3.820,0.032290076942994
230,3.828,0.0390326409023548
231,3.835,0.035303463981188
232,3.843,0.0595961354415849
233,3.851,0.0289850718043296
234,3.858,0.0275800027747904
235,3.866,0.0279953376451573
236,3.873,0.043945964049674
237,3.881,0.0528005500094113
238,3.888,0.0301957287668884
239,3.896,0.0321751970852329
240,3.903,0.0262279552180641
241,3.911,0.0449710458573881
242,3.918,0.0481788449625624
243,3.926,0.056149739708753
244,3.933,0.0518550004109164
245,3.941,0.0427618178235216
246,3.948,0.0531982110555073
247,3.956,0.085691536977617
248,3.964,0.0986817978167525
249,3.971,0.105662958403771
250,3.979,0.0412860534968987
251,3.986,0.0722771043559791
252,3.994,0.0503085407872098
253,4.001,0.0685656012590832
254,4.009,0.0394656495969926
255,4.016,0.0533219278254038
256,4.024,0.0256712297535297
257,4.031,0.0382019711616209
258,4.039,0.0684153737527803
259,4.046,0.0346230217467571
260,4.054,0.0504852790299191
261,4.061,0.0392093791450641
262,4.069,0.0483820939416781
263,4.077,0.0554162760015093
264,4.084,0.0786927025663277
265,4.092,0.115003574530959
266,4.099,0.0890849112376361
267,4.107,0.0513954809798722
268,4.114,0.0418869635221104
269,4.122,0.0551688424617163
270,4.129,0.0671251845810022
271,4.137,0.0576431778596469
272,4.144,0.0449798827695236
273,4.152,0.0463496041505209
274,4.159,0.0375745504000028
275,4.167,0.0591277790984052
276,4.175,0.0534809922438422
277,4.182,0.055372091440832
278,4.190,0.0385024261742268
279,4.197,0.0395982032790246
280,4.205,0.0409767615721574
281,4.212,0.0372299108267196
282,4.220,0.0481434973140206
283,4.227,0.0373624645087516
284,4.235,0.0610453890318014
285,4.242,0.0246373110336801
286,4.250,0.0443082774472282
287,4.257,0.0399516797644433
288,4.265,0.0365141209437469
289,4.272,0.0347909230773309
290,4.280,0.0365583055044242
291,4.288,0.0437692258069647
292,4.295,0.0275976765990613
293,4.303,0.0746277229840131
294,4.310,0.0523321936662316
295,4.318,0.038051743655318
296,4.325,0.0425408950201349
297,4.333,0.0301427072940756
298,4.340,0.0573162121106346
299,4.348,0.0350471935292595
300,4.355,0.0300720119969919
301,4.363,0.0560878813238048
302,4.370,0.0370354987597394
303,4.378,0.0607449340191955
304,4.386,0.0348969660229565
305,4.393,0.0388028811868326
306,4.401,0.0708278507657626
307,4.408,0.114711956430488
308,4.416,0.162484303434819
309,4.423,0.155971499190981
310,4.431,0.093308955238389
311,4.438,0.0578817744873044
312,4.446,0.0402698086013201
313,4.453,0.0452891746942649
314,4.461,0.0514661762769559
315,4.468,0.044361298920041
316,4.476,0.0510420044944535
317,4.483,0.0455012605855161
318,4.491,0.0528358976579532
319,4.499,0.0666833389742289
320,4.506,0.0644122525554141
321,4.514,0.0523763782269089
322,4.521,0.0418427789614331
323,4.529,0.0408353709779899
324,4.536,0.0490360254397027
325,4.544,0.0486648751300131
326,4.551,0.0532512325283201
327,4.559,0.0336951459725331
328,4.566,0.040817697153719
329,4.574,0.0366024900651015
330,4.581,0.0250438089919116
331,4.589,0.0379103530611505
332,4.597,0.0523056829298252
333,4.604,0.0400753965343398
334,4.612,0.0383787094043303
335,4.619,0.0299659690513663
336,4.627,0.038316851019382
337,4.634,0.0361694813704637
338,4.642,0.0411711736391376
339,4.649,0.019158425509691
340,4.657,0.0264223672850443
341,4.664,0.0576961993324597
342,4.672,0.033995600985139
343,4.679,0.0498401844440301
344,4.687,0.0550539626039552
345,4.694,0.0632281063292616
346,4.702,0.0505559743270029
347,4.710,0.044741286141866
348,4.717,0.03069943275861
349,4.725,0.0463849517990628
350,4.732,0.028331140306305
351,4.740,0.0446529170205114
352,4.747,0.0328556393196638
353,4.755,0.0263428350758251
354,4.762,0.0382019711616209
355,4.770,0.0628923036681139
356,4.777,0.01430696074732
357,4.785,0.0311324414532479
358,4.792,0.0589863885042377
359,4.800,0.0331119097715923
360,4.807,0.0308761710013193
361,4.815,0.0566887913490165
362,4.823,0.018115669877706
363,4.830,0.0722682674438436
364,4.838,0.0439282902254031
365,4.845,0.0551776793738517
366,4.853,0.0527121808880566
367,4.860,0.0345611633618088
368,4.868,0.0418516158735685
369,4.875,0.0178240517772356
370,4.883,0.0423995044259674
371,4.890,0.0423995044259674
372,4.898,0.0518550004109164
373,4.905,0.0193174899281294
374,4.913,0.044741286141866
375,4.921,0.0697409105731003
376,4.928,0.0386173060319879
377,4.936,0.0316184716206985
378,4.943,0.0407204911202288
379,4.951,0.0579701436086591
380,4.958,0.0521112708628449
381,4.966,0.0456073035311417
382,4.973,0.056697628261152
383,4.981,0.0237801305565399
384,4.988,0.0523940520511799
385,4.996,0.0552483746709355
386,5.003,0.0172850001369721
387,5.011,0.0218978682716856
388,5.018,0.0639615700365053
389,5.026,0.054444215666608
390,5.034,0.0357718203243677
391,5.041,0.0450505780666073
392,5.049,0.0588273240857993
393,5.056,0.062989509701604
394,5.064,0.0512364165614338
395,5.071,0.0595607877930431
396,5.079,0.0285255523732853
397,5.086,0.0437603888948293
398,5.094,0.047109578594171
399,5.101,0.0347644123409245
400,5.109,0.0277567410174997
401,5.116,0.048947656318348
402,5.124,0.0381224389524017
403,5.132,0.0439548009618095
404,5.139,0.0415599977730981
405,5.147,0.0361783182825991
406,5.154,0.0315035917629375
407,5.162,0.0517401205531553
408,5.169,0.0286404322310464
409,5.177,0.0530303097249334
410,5.184,0.0144306775172165
411,5.192,0.0265991055277536
412,5.199,0.0318305575119497
413,5.207,0.0432036634302949
414,5.214,0.0423288091288837
415,5.222,0.0354095069268136
416,5.229,0.0454217283762969
417,5.237,0.0250261351676406
418,5.245,0.0442022345016026
419,5.252,0.0535693613651969
420,5.260,0.0405084052289776
421,5.267,0.0228964393429933
422,5.275,0.05315402649483
423,5.282,0.0284371832519306
424,5.290,0.0610453890318014
425,5.297,0.0157385405132655
426,5.305,0.0383698724921948
427,5.312,0.0459872907529668
428,5.320,0.0333151587507081
429,5.327,0.0297803938965215
430,5.335,0.0305138576037652
431,5.343,0.0201481596688632
432,5.350,0.0153143687307631
433,5.358,0.0561320658844821
434,5.365,0.0327937809347155
435,5.373,0.026245629042335
436,5.380,0.0338188627424296
437,5.388,0.030849660264913
438,5.395,0.0424525258987802
439,5.403,0.034243034524932
440,5.410,0.0216239239954861
441,5.418,0.0504852790299191
442,5.425,0.0634667029569192
443,5.433,0.0316361454449695
444,5.440,0.063917385475828
445,5.448,0.0485411583601165
446,5.456,0.037388975245158
447,5.463,0.0413920964425243
448,5.471,0.0213588166314221
449,5.478,0.0422139292711226
450,5.486,0.0419399849949232
451,5.493,0.0282074235364085
452,5.501,0.070456700456073
453,5.508,0.0375922242242738
454,5.516,0.0550981471646326
455,5.523,0.0227462118366903
456,5.531,0.0391386838479804
457,5.538,0.0417367360158075
458,5.546,0.0413390749697115
459,5.554,0.0213234689828802
460,5.561,0.0420106802920069
461,5.569,0.045404054552026
462,5.576,0.0492216005945474
463,5.584,0.0251940364982145
464,5.591,0.0281720758878667
465,5.599,0.0323872829764841
466,5.606,0.042240440007529
467,5.614,0.0346937170438408
468,5.621,0.0354271807510845
469,5.629,0.0328821500560702
470,5.636,0.0464909947446884
471,5.644,0.0471537631548483
472,5.651,0.02454010500019
473,5.659,0.032670064164819
474,5.667,0.0263428350758251
475,5.674,0.0296743509508959
476,5.682,0.0238154782050818
477,5.689,0.0369559665505202
478,5.697,0.0379810483582343
479,5.704,0.0326347165162771
480,5.712,0.0228257440459095
481,5.719,0.0209876663217325
482,5.727,0.0516870990803426
483,5.734,0.0322282185580457
484,5.742,0.0259628478540001
485,5.749,0.0300985227333983
486,5.757,0.0253531009166529
487,5.764,0.0176561504466617
488,5.772,0.038829391923239
489,5.780,0.0259893585904065
490,5.787,0.0109224233994364
491,5.795,0.0136530292492955
492,5.802,0.0321221756124201
493,5.810,0.0238684996778946
494,5.817,0.0361429706340573
495,5.825,0.0193970221373486
496,5.832,0.0227285380124194
497,5.840,0.0163747981870191
498,5.847,0.0171082618942628
499,5.855,0.011143346202823
500,5.862,0.0119916897678278
501,5.870,0.0234620017196631
502,5.878,0.0217388038532472
503,5.885,0.0312738320474153
504,5.893,0.00392358898814705
505,5.900,0.0163747981870191
506,5.908,0.0383610355800593
507,5.915,0.0325109997463806
508,5.923,0.0118149515251185
509,5.930,0.021906705183821
510,5.938,0.0185575154844793
511,5.945,0.0459431061922894
512,5.953,0.0400577227100689
513,5.960,0.0296655140387605
514,5.968,0.0410739676056475
515,5.975,0.0259451740297291
516,5.983,0.0242396499875841
517,5.991,0.00683976999285094
518,5.998,0.0122126125712145
519,6.006,0.0178063779529646
520,6.013,0.0256270451928523
521,6.021,0
522,6.028,0.000680442234430907
523,6.036,0.0211113830916291
524,6.043,0.02728838467432
525,6.051,0.0246196372094092
526,6.058,0.022056932690124
527,6.066,0.0111168354664166
528,6.073,0.025052645904047
529,6.081,0.0481346604018851
530,6.089,0.0420990494133616
531,6.096,0.0216946192925698
532,6.104,0.0157385405132655
533,6.111,0.0172673263127012
534,6.119,0.035038356617124
535,6.126,0.0337216567089395
536,6.134,0.0192202838946393
537,6.141,0.0142981238351845
538,6.149,0.0129372393663227
539,6.156,0.00680442234430907
540,6.164,0.0229229500793997
541,6.171,0.00682209616858
542,6.179,0.0145278835507066
543,6.186,0.0227903963973677
544,6.194,0.0111963676756358
545,6.202,0.0302399133275658
546,6.209,0.0206076790999075
547,6.217,0.0320161326667945
548,6.224,0.0289232134193813
549,6.232,0.00133437373245542
550,6.239,0.0103745348470375
551,6.247,0.00980897247036762
552,6.254,0.0184161248903118
553,6.262,0.0164631673083738
554,6.269,0.015614823743369
555,6.277,0.0278892946995317
556,6.284,0.000123716769896529
557,6.292,0.0335272446419592
558,6.300,0.00349941720564467
559,6.307,0.0445026895142084
560,6.315,0.0149432184210736
561,6.322,0.0205193099785528
562,6.330,0.0160478324380069
563,6.337,0.0454835867612452
564,6.345,0.0212792844222029
565,6.352,0.0180803222291641
566,6.360,0.0167812961452506
567,6.367,0.0237094352594562
568,6.375,0.0275976765990613
569,6.382,0.0146604372327386
570,6.390,0.0139269735254949
571,6.397,0.0193174899281294
572,6.405,0.0271381571680171
573,6.413,0.014704621793416
574,6.420,0.0373359537723452
575,6.428,0.0109577710479782
576,6.435,0.0139799949983077
577,6.443,0.0286669429674528
578,6.450,0.0280483591179701
579,6.458,0.0348969660229565
580,6.465,0.0324579782735678
581,6.473,0.0543204988967115
582,6.480,0.0544707264030144
583,6.488,0.0205458207149592
584,6.495,0.0346937170438408
585,6.503,0.0159594633166522
586,6.510,0.0312915058716863
587,6.518,0.0265814317034827
588,6.526,0.0285609000218272
589,6.533,0.0245842895608673
590,6.541,0.0380340698310471
591,6.548,0.0294887757960511
592,6.556,0.0122567971318918
593,6.563,0.0164278196598319
594,6.571,0.011691234755222
595,6.578,0.01155868107319
596,6.586,0.0297185355115733
597,6.593,0.0140506902953915
598,6.601,0.0339690902487326
599,6.608,0.0128930548056454
600,6.616,0.0104717408805276
601,6.624,0.0426469379657605
602,6.631,0.0134762910065861
603,6.639,0.00918155170874952
604,6.646,0.0179212578107257
605,6.654,0.0252824056195692
606,6.661,0.0156236606555045
607,6.669,0.0319100897211689
608,6.676,0.040534915965384
609,6.684,0.0341900130521192
610,6.691,0.0215797394348088
611,6.699,0.0181598544383833
612,6.706,0.019688640237819
613,6.714,0.0127958487721552
614,6.721,0.0263428350758251
615,6.729,0.0327495963740382
616,6.737,0.0286315953189109
617,6.744,0.0268200283311403
618,6.752,0.0320779910517428
619,6.759,0.0187872752000014
620,6.767,0.0107280113324561
621,6.774,0.0151818150487312
622,6.782,0.0244694097031063
623,6.789,0.0373447906844807
624,6.797,0.0112317153241777
625,6.804,0.0210583616188163
626,6.812,0.0229141131672642
627,6.819,0.0200244428989667
628,6.827,0.00811228534035809
629,6.835,0.0254944915108204
630,6.842,0.0128842178935099
631,6.850,0.0168785021787407
632,6.857,0.0187254168150531
633,6.865,0.039359606651367
634,6.872,0.0384582416135495
635,6.880,0.0199890952504248
636,6.887,0.011691234755222
637,6.895,0.0184691463631246
638,6.902,0.0444408311292602
639,6.910,0.00933177921505244
640,6.917,0.0487267335149613
641,6.925,0.0551600055495808
642,6.932,0.0558757954325536
643,6.940,0.0347025539559763
644,6.948,0.020068627459644
645,6.955,0.035170910299156
646,6.963,0.0441757237651962
647,6.970,0.052606137942431
648,6.978,0.0355950820816584
649,6.985,0.0415599977730981
650,6.993,0.0652340853840124
651,7.000,0.0810786688429036
652,7.008,0.0710222628327429
653,7.015,0.0603207622366932
654,7.023,0.051430828628414
655,7.030,0.0504145837328354
656,7.038,0.0462877457655726
657,7.046,0.0594193971988756
658,7.053,0.0120535481527761
659,7.061,0.0504587682935127
660,7.068,0.0263339981636897
661,7.076,0.0456249773554126
662,7.083,0.0289585610679232
663,7.091,0.0342341976127966
664,7.098,0.0240629117448748
665,7.106,0.0161715492079034
666,7.113,0.0159417894923813
667,7.121,0.0466058746024494
668,7.128,0.0342253607006611
669,7.136,0.0419576588191941
670,7.143,0.0108694019266236
671,7.151,0.0414274440910661
672,7.159,0.0397837784338694
673,7.166,0.0515191977497687
674,7.174,0.0210406877945453
675,7.181,0.0115056596003772
676,7.189,0.0553190699680192
677,7.196,0.044361298920041
678,7.204,0.0328909869682057
679,7.211,0.0201393227567278
680,7.219,0.0366820222743207
681,7.226,0.0486648751300131
682,7.234,0.0358867001821288
683,7.241,0.0432036634302949
684,7.249,0.0281985866242731
685,7.257,0.0361783182825991
686,7.264,0.0664800899951132
687,7.272,0.0476132825858926
688,7.279,0.0375303658393255
689,7.287,0.0266963115612438
690,7.294,0.0515280346619042
691,7.302,0.0409767615721574
692,7.309,0.0332179527172179
693,7.317,0.025847967996239
694,7.324,0.0478783899499566
695,7.332,0.0439194533132677
696,7.339,0.0305315314280362
