#"+EI TIC Scan EA-End-Blank.d "
#Point,X(Minutes),Y(Counts)
0,2.095,0.120180799419777
1,2.102,0.116868229257374
2,2.110,0.111977122815589
3,2.117,0.104376588431581
4,2.125,0.089839918515486
5,2.132,0.0964414985973174
6,2.140,0.0901933221601237
7,2.147,0.0992545916086331
8,2.155,0.083021584198277
9,2.163,0.0757933016532882
10,2.170,0.0873189725170708
11,2.178,0.0668922418570146
12,2.185,0.0532414370768109
13,2.193,0.0755152907861733
14,2.200,0.0672927659876039
15,2.208,0.0676838660210029
16,2.215,0.0623074185739155
17,2.223,0.0684754901849913
18,2.230,0.056205315643172
19,2.238,0.0550932721747122
20,2.245,0.0570205000501362
21,2.253,0.0566765205026889
22,2.261,0.0530812274245752
23,2.268,0.061708988402329
24,2.276,0.0501126368096189
25,2.283,0.0432754542980292
26,2.291,0.0463194376905081
27,2.298,0.0509655176053444
28,2.306,0.0511257272575802
29,2.313,0.0535665684298776
30,2.321,0.0542969359621287
31,2.328,0.0565634313364048
32,2.336,0.0550461516887605
33,2.343,0.0409853986807772
34,2.351,0.0550084552999992
35,2.358,0.0452733629023807
36,2.366,0.0473513763328501
37,2.374,0.0463100135933178
38,2.381,0.0491560909447997
39,2.389,0.0615629148958788
40,2.396,0.126391279468209
41,2.404,0.362493186377731
42,2.411,0.182521202333859
43,2.419,0.0391948202146131
44,2.426,0.0392372286519696
45,2.434,0.0418759758652641
46,2.441,0.0470686534171399
47,2.449,0.0486848860852828
48,2.456,0.0468047786958105
49,2.464,0.0312173219429925
50,2.472,0.0522990273577772
51,2.479,0.0439068688097818
52,2.487,0.0470026847368076
53,2.494,0.0350435054022695
54,2.502,0.0437089627687847
55,2.509,0.0350906258882212
56,2.517,0.0460320027262028
57,2.524,0.0328099943681595
58,2.532,0.0540471973865848
59,2.539,0.0470168208825931
60,2.547,0.0337853884273594
61,2.554,0.0453770279714744
62,2.562,0.0345817246399429
63,2.569,0.0502775585104498
64,2.577,0.0297000422953482
65,2.585,0.030505802605122
66,2.592,0.0511634236463415
67,2.600,0.0364948163695814
68,2.607,0.046149803941082
69,2.615,0.0361885332108955
70,2.622,0.0353592126581458
71,2.630,0.0473843606730162
72,2.637,0.0462770292531516
73,2.645,0.0296058013234448
74,2.652,0.0347277981463932
75,2.660,0.0412728336450825
76,2.667,0.0364806802237959
77,2.675,0.0385869659458363
78,2.683,0.0287482084791241
79,2.690,0.0241680972446202
80,2.698,0.0348550234584627
81,2.705,0.0491890752849658
82,2.713,0.0421304264894032
83,2.720,0.0333236076650329
84,2.728,0.0626561101699579
85,2.735,0.0550979842233074
86,2.743,0.0615582028472836
87,2.750,0.0528079286060554
88,2.758,0.052628870759439
89,2.765,0.0517948381580941
90,2.773,0.0658791514090533
91,2.780,0.0461403798438917
92,2.788,0.0380780646975581
93,2.796,0.0360848681418018
94,2.803,0.0251152190122491
95,2.811,0.0555267806454677
96,2.818,0.054499554051721
97,2.826,0.042907914507606
98,2.833,0.0379838237256547
99,2.841,0.046875459424738
100,2.848,0.0369613091805031
101,2.856,0.0492974524026547
102,2.863,0.0614498257295948
103,2.871,0.0478367173381524
104,2.878,0.0445854038074861
105,2.886,0.0618550619087793
106,2.894,0.0709069072600983
107,2.901,0.0622885703795348
108,2.909,0.0477707486578201
109,2.916,0.0480110631361737
110,2.924,0.0557718071724165
111,2.931,0.0573267832088222
112,2.939,0.0357691608859255
113,2.946,0.0492691801110837
114,2.954,0.210656844495611
115,2.961,5.86951150003732
116,2.969,38.0025352706261
117,2.976,93.2518092381786
118,2.984,100
119,2.991,1.96865620667271
120,2.999,0.122565096008933
121,3.007,0.091710601807768
122,3.014,0.0817304828832008
123,3.022,0.0715006253830895
124,3.029,0.064668154920095
125,3.037,0.0968608709222874
126,3.044,0.0825268190957843
127,3.052,0.0556775662005131
128,3.059,0.063999044019581
129,3.067,0.0807927852127622
130,3.074,0.0431011085000079
131,3.082,0.0498016416023378
132,3.089,0.0694932926815477
133,3.097,0.0438644603724252
134,3.104,0.053524159992521
135,3.112,0.0413953469085569
136,3.120,0.0600974677827813
137,3.127,0.0806985442408588
138,3.135,0.0747896353025173
139,3.142,0.041734614407409
140,3.150,0.0325602557926156
141,3.157,0.0579063651860279
142,3.165,0.060088043685591
143,3.172,0.0400241407673628
144,3.180,0.0527089755855569
145,3.187,0.0457257195675169
146,3.195,0.0391665479230421
147,3.202,0.03869063101493
148,3.210,0.0340963836346406
149,3.218,0.0370602622010017
150,3.225,0.0334084245397459
151,3.233,0.0374136658456393
152,3.240,0.0462299087671999
153,3.248,0.0379131429967272
154,3.255,0.0592917074730075
155,3.263,0.0551545288064494
156,3.270,0.0431576530831499
157,3.278,0.0388932491045223
158,3.285,0.0283571084457251
159,3.293,0.0237817092598163
160,3.300,0.0359623548783274
161,3.308,0.0451555616875015
162,3.315,0.0589760002171312
163,3.323,0.0421963951697355
164,3.331,0.029582241080469
165,3.338,0.031090096630923
166,3.346,0.0441895917254919
167,3.353,0.0238146935999825
168,3.361,0.021119401803546
169,3.368,0.0326497847159238
170,3.376,0.0294314555254236
171,3.383,0.0194513366008563
172,3.391,0.0238429658915535
173,3.398,0.0228628597837584
174,3.406,0.0256005600175514
175,3.413,0.0193005510458109
176,3.421,0.0313209870120862
177,3.429,0.019804740245494
178,3.436,0.0237534369682453
179,3.444,0.02569951303805
180,3.451,0.0338466450590966
181,3.459,0.0253413973448172
182,3.466,0.0146638952281649
183,3.474,0.0216754235377759
184,3.481,0.044750325508317
185,3.489,0.0721603121864132
186,3.496,0.0576424904646985
187,3.504,0.0183911256669434
188,3.511,0.0214869415939692
189,3.519,0.0214633813509933
190,3.526,0.0218780416273682
191,3.534,0.0282628674738217
192,3.542,0.0249927057487747
193,3.549,0.021425684962232
194,3.557,0.013575412002681
195,3.564,0.0243942755771883
196,3.572,0.00936284055860017
197,3.579,0.0318204641631741
198,3.587,0.0236026514131999
199,3.594,0.0291817169498796
200,3.602,0.022292701903743
201,3.609,0.0175052605310516
202,3.617,0.0156816977247214
203,3.624,0.0257183612324307
204,3.632,0.0294031832338526
205,3.640,0.0165911231035889
206,3.647,0.0102675538888726
207,3.655,0.0150172988728026
208,3.662,0.00768063921012495
209,3.670,0.0137544698492974
210,3.677,0.0286963759445773
211,3.685,0.0186502883396776
212,3.692,0.0295445446917076
213,3.700,0.0148429530747813
214,3.707,0.0275042276499996
215,3.715,0.0225188802363111
216,3.722,0.0183487172295868
217,3.730,0.0286492554586256
218,3.737,0.0223021260009334
219,3.745,0.025812602204334
220,3.753,0.0149843145326364
221,3.760,0.011313628677
222,3.768,0.0262649588694702
223,3.775,0.0217461042667035
224,3.783,0.0242057936333815
225,3.790,0.0358728259550192
226,3.798,0.00673822949109121
227,3.805,0.0249691455057988
228,3.813,0.0165722749092082
229,3.820,0.0338607812048821
230,3.828,0.0238146935999825
231,3.835,0.00770419945310079
232,3.843,0.00946650562769388
233,3.850,0.00936755260719534
234,3.858,0.0173073544900546
235,3.866,0.0320843388845035
236,3.873,0.0251246431094394
237,3.881,0.0208272547906456
238,3.888,0.0251811876925814
239,3.896,0.0184806545902516
240,3.903,0.0152434772053707
241,3.911,0.012793211935883
242,3.918,0.0105973972905344
243,3.926,0.0234565779067497
244,3.933,0.0157570905022441
245,3.941,0.0274853794556189
246,3.948,0.0143811723124548
247,3.956,0.0056120498768459
248,3.964,0.0314670605185364
249,3.971,0.0891378232748059
250,3.979,0.0511681356949367
251,3.986,0.019470184795237
252,3.994,0.0199508137519442
253,4.001,0.0250209780403457
254,4.009,0.0106727900680571
255,4.016,0.0280508252870392
256,4.024,0.0169680869912024
257,4.031,0.000226178332568097
258,4.039,0.0205963644094823
259,4.046,0.0164638977915194
260,4.054,0.0261330215088055
261,4.061,0.00980106107795085
262,4.069,0.020365474028319
263,4.077,0.0245874695695902
264,4.084,0.0144471409927872
265,4.092,0.0295209844487318
266,4.099,0.0285173180979609
267,4.107,0.00847697542270845
268,4.114,0.0246157418611612
269,4.122,0.0234565779067497
270,4.129,0.0299120844821308
271,4.137,0.0259633877593794
272,4.144,0.0238382538429584
273,4.152,0.0285078940007705
274,4.159,0.0347560704379642
275,4.167,0.0327346015906368
276,4.175,0.0249408732142278
277,4.182,0.0314529243727509
278,4.190,0.0194513366008563
279,4.197,0.0212183548240446
280,4.205,0.0238241176971728
281,4.212,0.0102581297916822
282,4.220,0.0123220070763661
283,4.227,0.022655529645571
284,4.235,0.0356325114766656
285,4.242,0.0239607671064327
286,4.250,0.0367445549451254
287,4.257,0.0146356229365939
288,4.265,0.023324640546085
289,4.272,0.023744012871055
290,4.280,0.0131277673861399
291,4.288,0.0253272611990317
292,4.295,0.0171330086920333
293,4.303,0.0146120626936181
294,4.310,0.0195926980587114
295,4.318,0.0214398211080175
296,4.325,0.0160303893207638
297,4.333,0.0183628533753723
298,4.340,0.00841571879097126
299,4.348,0.023744012871055
300,4.355,0.0198989812173973
301,4.363,0.0179199208074265
302,4.370,0.0316743906567239
303,4.378,0.0208837993737876
304,4.386,0.024667574395708
305,4.393,0.019804740245494
306,4.401,0.0273063216090025
307,4.408,0.0224105031186222
308,4.416,0.0947781454432228
309,4.423,0.142101249484502
310,4.431,0.0579440615747893
311,4.438,0.0379979598714402
312,4.446,0.0355288464075718
313,4.453,0.0130523746086172
314,4.461,0.0302796242725539
315,4.468,0.0224246392644077
316,4.476,0.0325602557926156
317,4.483,0.0208602391308117
318,4.491,0.022598985062429
319,4.499,0.0306613002087626
320,4.506,0.0261895660919475
321,4.514,0.00984346951530737
322,4.521,0.0282722915710121
323,4.529,0.0248324960965389
324,4.536,0.0391618358744469
325,4.544,0.0286916638959821
326,4.551,0.0251387792552249
327,4.559,0.024469668354711
328,4.566,0.0225094561391208
329,4.574,0.00666754876216368
330,4.581,0.0230042212416135
331,4.589,0.0210251608316427
332,4.597,0.0147345759570925
333,4.604,0.0209073596167634
334,4.612,0.0337712522815739
335,4.619,0.0205633800693161
336,4.627,0.0294974242057559
337,4.634,0.0241775213418105
338,4.642,0.012011011869085
339,4.649,0.0300675820857713
340,4.657,0.0106398057278909
341,4.664,0.0188906028180312
342,4.672,0.0197906040997085
343,4.679,0.0294503037198043
344,4.687,0.0201911282302978
345,4.694,0.0171047364004623
346,4.702,0.0141879783200529
347,4.710,0.0188481943806747
348,4.717,0.0166146833465648
349,4.725,0.0284042289316768
350,4.732,0.0262838070638509
351,4.740,0.0186832726798438
352,4.747,0.0211665222894977
353,4.755,0.0256806648436693
354,4.762,0.0290309313948342
355,4.770,0.0225565766250725
356,4.777,0.0149513301924702
357,4.785,0.0164733218887097
358,4.792,0.0289319783743357
359,4.800,0.0291440205611183
360,4.807,0.0161152061954769
361,4.815,0.0170340556715348
362,4.823,0.0292241253872362
363,4.830,0.0206387728468388
364,4.838,0.0266419227570837
365,4.845,0.0246063177639708
366,4.853,0.0266654830000596
367,4.860,0.0175900774057647
368,4.868,0.0321031870788842
369,4.875,0.0258927070304519
370,4.883,0.0326450726673286
371,4.890,0.0348220391182965
372,4.898,0.0194654727466418
373,4.905,0.0274241228238817
374,4.913,0.0340539751972841
375,4.921,0.0173073544900546
376,4.928,0.0245686213752095
377,4.936,0.0145696542562616
378,4.943,0.0293937591366622
379,4.951,0.0185466232705839
380,4.958,0.0256146961633369
381,4.966,0.0169115424080604
382,4.973,0.0149701783868509
383,4.981,0.0243283068968559
384,4.988,0.0173450508788159
385,4.996,0.0248560563395148
386,5.003,0.0234612899553449
387,5.011,0.0178869364672603
388,5.018,0.0153707025174402
389,5.026,0.0223963669728367
390,5.034,0.0146827434225456
391,5.041,0.0161152061954769
392,5.049,0.0173686111217918
393,5.056,0.0255345913372191
394,5.064,0.026481713104848
395,5.071,0.0226036971110242
396,5.079,0.0357361765457593
397,5.086,0.023772285162626
398,5.094,0.019498457086808
399,5.101,0.0190602365674573
400,5.109,0.0218073608984406
401,5.116,0.0220806597169604
402,5.124,0.0272592011230508
403,5.132,0.0231125983593024
404,5.139,0.0187680895545569
405,5.147,0.0209686162485006
406,5.154,0.00917435861479342
407,5.162,0.017905784661641
408,5.169,0.0248749045338955
409,5.177,0.0325414075982349
410,5.184,0.0258597226902857
411,5.192,0
412,5.199,0.0104843081242503
413,5.207,0.0149701783868509
414,5.214,0.0135801240512761
415,5.222,0.0206906053813857
416,5.229,0.0180377220223057
417,5.237,0.0289790988602874
418,5.245,0.0228016031520212
419,5.252,0.0272968975118122
420,5.260,0.0276503011564498
421,5.267,0.0274995156014044
422,5.275,0.0258031781071437
423,5.282,0.0262508227236847
424,5.290,0.0228675718323536
425,5.297,0.0250351141861312
426,5.305,0.025642968454908
427,5.312,0.0271696721997426
428,5.320,0.0211146897549509
429,5.327,0.0207424379159325
430,5.335,0.0131890240178771
431,5.343,0.0199555258005394
432,5.350,0.0191262052477897
433,5.358,0.0394398467415619
434,5.365,0.0295256964973269
435,5.373,0.0255958479689563
436,5.380,0.0234235935665835
437,5.388,0.0229146923183053
438,5.395,0.026203702237733
439,5.403,0.0124256721454598
440,5.410,0.0315188930530833
441,5.418,0.023381185129227
442,5.425,0.026594802271132
443,5.433,0.0209214957625489
444,5.440,0.0278859035862082
445,5.448,0.0119544672859429
446,5.456,0.043242469957863
447,5.463,0.0261848540433524
448,5.471,0.0444251941552503
449,5.478,0.0442131519684677
450,5.486,0.0353026680750037
451,5.493,0.0336581631152899
452,5.501,0.019413640212095
453,5.508,0.0409477022920158
454,5.516,0.0292712458731878
455,5.523,0.0230796140191362
456,5.531,0.0326921931532803
457,5.538,0.0316555424623432
458,5.546,0.035896386197995
459,5.553,0.0275466360873561
460,5.561,0.0118036817308975
461,5.569,0.0181036907026381
462,5.576,0.0253037009560558
463,5.584,0.0250728105748925
464,5.591,0.0206010764580775
465,5.599,0.024917312971252
466,5.606,0.03436025835597
467,5.614,0.0361979573080858
468,5.621,0.056511598801858
469,5.629,0.0711990542729988
470,5.636,0.0411079119442516
471,5.644,0.0301995194464361
472,5.651,0.0241256888072636
473,5.659,0.0311513532626601
474,5.667,0.0236450598505564
475,5.674,0.0378754466079659
476,5.682,0.023324640546085
477,5.689,0.0167371966100392
478,5.697,0.03002988569701
479,5.704,0.0266607709514644
480,5.712,0.0372628802905939
481,5.719,0.0458435207823961
482,5.727,0.0542875118649384
483,5.734,0.0477990209493911
484,5.742,0.0348597355070579
485,5.749,0.0297660109756806
486,5.757,0.023296368254514
487,5.764,0.0444251941552503
488,5.772,0.0332482148875102
489,5.780,0.0461780762326531
490,5.787,0.0225235922849063
491,5.795,0.0368387959170287
492,5.802,0.0282911397653928
493,5.810,0.0287670566735048
494,5.817,0.0234895622469159
495,5.825,0.0417440385045993
496,5.832,0.0200073583350862
497,5.840,0.026594802271132
498,5.847,0.0322209882937634
499,5.855,0.0278293590030662
500,5.862,0.0236120755103903
501,5.870,0.0262790950152557
502,5.878,0.0226084091596193
503,5.885,0.0373429851167118
504,5.893,0.0370508381038113
505,5.900,0.0238476779401487
506,5.908,0.0289508265687164
507,5.915,0.0181602352857801
508,5.923,0.0345770125913478
509,5.930,0.0272309288314798
510,5.938,0.0254921828998626
511,5.945,0.0368482200142191
512,5.953,0.0290497795892149
513,5.960,0.0179811774391637
514,5.968,0.026985902304531
515,5.975,0.0222031729804348
516,5.983,0.0214068367678513
517,5.991,0.0258173142529292
518,5.998,0.0310335520477809
519,6.006,0.0230372055817797
520,6.013,0.0152481892539658
521,6.021,0.0304539700705752
522,6.028,0.0477613245606297
523,6.036,0.0317403593370562
524,6.043,0.0367681151881012
525,6.051,0.0425215265228022
526,6.058,0.034638269223085
527,6.066,0.024497940646282
528,6.073,0.0483314824406451
529,6.081,0.0358822500522095
530,6.089,0.0282157469878701
531,6.096,0.0275183637957851
532,6.104,0.0415885409009588
533,6.111,0.0350340813050791
534,6.119,0.0439539892957334
535,6.126,0.0435628892623344
536,6.134,0.0710765410095244
537,6.141,0.0543534805452707
538,6.149,0.0668309852252774
539,6.156,0.037097958589763
540,6.164,0.0592822833758172
541,6.171,0.031509468955893
542,6.179,0.0356136632822849
543,6.186,0.0296717700037772
544,6.194,0.0389356575418788
545,6.202,0.0385162852169088
546,6.209,0.0383607876132682
547,6.217,0.0318911448921016
548,6.224,0.0388414165699754
549,6.232,0.0457398557133024
550,6.239,0.0493398608400112
551,6.247,0.0347277981463932
552,6.254,0.0364665440780104
553,6.262,0.0234047453722028
554,6.269,0.0401278058364565
555,6.277,0.0243000346052849
556,6.284,0.0250162659917505
557,6.292,0.0421162903436177
558,6.300,0.0341293679748067
559,6.307,0.0308639182983549
560,6.315,0.0309911436104244
561,6.322,0.0218591934329875
562,6.330,0.0262225504321137
563,6.337,0.0338230848161208
564,6.345,0.0347607824865594
565,6.352,0.028130930113157
566,6.360,0.0348597355070579
567,6.367,0.0438738844696156
568,6.375,0.0403822564605956
569,6.382,0.0314058038867993
570,6.390,0.0290874759779763
571,6.397,0.0446655086336039
572,6.405,0.0344969077652299
573,6.413,0.0323623497516185
574,6.420,0.0395199515676797
575,6.428,0.0286916638959821
576,6.435,0.027598468621903
577,6.443,0.0324942871122832
578,6.450,0.0287670566735048
579,6.458,0.0287434964305289
580,6.465,0.0282722915710121
581,6.473,0.0356277994280704
582,6.480,0.0409429902434207
583,6.488,0.0299686290652728
584,6.495,0.0396613130255348
585,6.503,0.0226084091596193
586,6.510,0.0377435092473011
587,6.518,0.0414377553459134
588,6.526,0.0290309313948342
589,6.533,0.0433649832213374
590,6.541,0.033827796864716
591,6.548,0.0384408924393861
592,6.556,0.0452639388051903
593,6.563,0.0331398377698213
594,6.571,0.0477047799774877
595,6.578,0.0208932234709779
596,6.586,0.0307602532292611
597,6.593,0.0255769997745756
598,6.601,0.0472759835553274
599,6.608,0.0331916703043682
600,6.616,0.0395623600050362
601,6.624,0.0232115513798009
602,6.631,0.0219157380161295
603,6.639,0.0332906233248667
604,6.646,0.016760756853015
605,6.654,0.0268068444579146
606,6.661,0.0338372209619063
607,6.669,0.0419890650315481
608,6.676,0.0388696888615464
609,6.684,0.031118368922494
610,6.691,0.0383843478562441
611,6.699,0.0295728169832786
612,6.706,0.0345911487371333
613,6.714,0.032654496764519
614,6.721,0.0352838198806231
615,6.729,0.034275441481257
616,6.737,0.0329984763119663
617,6.744,0.0257324973782162
618,6.752,0.0327911461737788
619,6.759,0.0273534420949542
620,6.767,0.0404199528493569
621,6.774,0.0398545070179367
622,6.782,0.031174913505636
623,6.789,0.0164827459859
624,6.797,0.0376162839352316
625,6.804,0.0365513609527235
626,6.812,0.0482419535173369
627,6.819,0.0257089371352403
628,6.827,0.028408940980272
629,6.835,0.0210769933661895
630,6.842,0.0351613066171487
631,6.850,0.0320042340583857
632,6.857,0.0501409091011899
633,6.865,0.0277256939339725
634,6.872,0.0393738780612295
635,6.880,0.0342424571410908
636,6.887,0.0277351180311628
637,6.895,0.0282817156682024
638,6.902,0.042488542182636
639,6.910,0.0275230758443803
640,6.917,0.0381346092807001
641,6.925,0.0402691672943115
642,6.932,0.0456409026928038
643,6.940,0.0484210113639534
644,6.948,0.0320230822527664
645,6.955,0.0450000640838609
646,6.963,0.0372723043877843
647,6.970,0.0418241433307172
648,6.978,0.0365984814386751
649,6.985,0.0239277827662666
650,6.993,0.0443922098150841
651,7.000,0.0413529384712003
652,7.008,0.0314576364213461
653,7.015,0.0485717969189988
654,7.023,0.0979305059533907
655,7.030,0.156265667561579
656,7.038,0.137709620193805
657,7.046,0.0787241958794831
658,7.053,0.0660299369640987
659,7.061,0.0521718020457076
660,7.068,0.0595178858055756
661,7.076,0.0497215367762199
662,7.083,0.0511257272575802
663,7.091,0.0612519196885977
664,7.098,0.0615440667014981
665,7.106,0.0556257336659663
666,7.113,0.0400524130589338
667,7.121,0.0454995412349488
668,7.128,0.0556257336659663
669,7.136,0.0463854063708405
670,7.143,0.0527089755855569
671,7.151,0.0608749558009842
672,7.159,0.0833467155513436
673,7.166,0.109338375602294
674,7.174,0.0975865264059434
675,7.181,0.0690362239678163
676,7.189,0.0646870031144756
677,7.196,0.0571147410220396
678,7.204,0.0587733821275389
679,7.211,0.0594849014654094
680,7.219,0.080005873097369
681,7.226,0.162315937957776
682,7.234,0.211495589145551
683,7.241,0.179585596059069
684,7.249,0.124530020273118
685,7.256,0.094448302041561
686,7.264,0.0844399108254228
687,7.272,0.0658508791174823
688,7.279,0.0642063741577684
689,7.287,0.0666189430384948
690,7.294,0.0567848976203778
691,7.302,0.0608608196551987
692,7.309,0.0619540149292778
693,7.317,0.0555314926940629
694,7.324,0.0540142130464186
