#"+EI TIC Scan EA-PP.d "
#Point,X(Minutes),Y(Counts)
0,2.095,0.118645955849141
1,2.102,0.114584768352608
2,2.110,0.0926508167101143
3,2.117,0.0793302986795478
4,2.125,0.0901689799066776
5,2.133,0.0742117867694297
6,2.140,0.068571248579801
7,2.148,0.0717786134327271
8,2.155,0.0696993562177267
9,2.163,0.0597454652948524
10,2.170,0.0746763016791639
11,2.178,0.0718007331903335
12,2.185,0.0625015870926083
13,2.193,0.0681067336700668
14,2.200,0.0578343182376605
15,2.208,0.0623025092741508
16,2.215,0.0523707381088828
17,2.223,0.0581041792804584
18,2.230,0.0525919356849467
19,2.238,0.0481635602121479
20,2.246,0.0454207102689559
21,2.253,0.0483891817397331
22,2.261,0.045040250438126
23,2.268,0.0495969205050418
24,2.276,0.0429609932231256
25,2.283,0.0543217007297662
26,2.291,0.0366435904507414
27,2.298,0.0489244798738077
28,2.306,0.0387007279081354
29,2.313,0.0359313342558157
30,2.321,0.0349138254059219
31,2.328,0.0355331786189007
32,2.336,0.0461683580760518
33,2.344,0.0522557153693296
34,2.351,0.0371213772150393
35,2.359,0.0381831255801459
36,2.366,0.0298793685747081
37,2.374,0.048340518272999
38,2.381,0.0322815742507618
39,2.389,0.0307022235576657
40,2.396,0.125357090306919
41,2.404,0.367263183441893
42,2.411,0.144127916611699
43,2.419,0.0506321251610208
44,2.426,0.0504684389547335
45,2.434,0.0408021048807422
46,2.441,0.0384529866229439
47,2.449,0.0334760411615067
48,2.457,0.0544588432269258
49,2.464,0.0584934870143309
50,2.472,0.0309057253276445
51,2.479,0.0623202050802359
52,2.487,0.0616167967883528
53,2.494,0.0503224485545314
54,2.502,0.0305562331574636
55,2.509,0.0374487496276139
56,2.517,0.0304058188057401
57,2.524,0.0440492852973599
58,2.532,0.0473628249867967
59,2.539,0.0375593484156458
60,2.547,0.0360065414316774
61,2.555,0.0258845403509945
62,2.562,0.0369355712511457
63,2.570,0.0358118875647412
64,2.577,0.0313392725767297
65,2.585,0.0410940856811465
66,2.592,0.0330557657669853
67,2.600,0.0387272716172631
68,2.607,0.045071218098775
69,2.615,0.027167486292165
70,2.622,0.0462391413003922
71,2.630,0.0409702150385508
72,2.637,0.0352765894306666
73,2.645,0.0335424004343259
74,2.652,0.0382096692892736
75,2.660,0.0471681711198605
76,2.668,0.0296758668047293
77,2.675,0.0363958491655498
78,2.683,0.0295077566469208
79,2.690,0.0349624888726559
80,2.698,0.0296802907562506
81,2.705,0.0283265615907397
82,2.713,0.0319984413534
83,2.720,0.0327195454513683
84,2.728,0.0614531105820655
85,2.735,0.0522557153693296
86,2.743,0.0524724889938722
87,2.750,0.0359888456255923
88,2.758,0.0371877364878585
89,2.765,0.0596702581189907
90,2.773,0.0589978174877565
91,2.781,0.0489289038253289
92,2.788,0.0418815490519339
93,2.796,0.0349580649211347
94,2.803,0.0455047653478602
95,2.811,0.0475884465143819
96,2.818,0.0323479335235809
97,2.826,0.0416205359121785
98,2.833,0.032684153839198
99,2.841,0.0373691185002309
100,2.848,0.0377230346219331
101,2.856,0.0420363873551786
102,2.863,0.0608116376114803
103,2.871,0.0471593232168179
104,2.879,0.0480087219089032
105,2.886,0.0718538206085889
106,2.894,0.0527379260851489
107,2.901,0.0591128402273097
108,2.909,0.0544765390330109
109,2.916,0.0418903969549765
110,2.924,0.04688946217402
111,2.931,0.0372142801969862
112,2.939,0.0375372286580394
113,2.946,0.0486678906855736
114,2.954,0.183310855235654
115,2.961,5.55173178679066
116,2.969,35.4442173777594
117,2.976,84.127189314069
118,2.984,100
119,2.992,2.0737449714049
120,2.999,0.101458904188978
121,3.007,0.0839798717284104
122,3.014,0.0746630298246
123,3.022,0.0621609428254699
124,3.029,0.046650568791871
125,3.037,0.0833207029517401
126,3.044,0.0753531662619193
127,3.052,0.046203749688222
128,3.059,0.0479821781997756
129,3.067,0.060170164640895
130,3.074,0.0511983909557443
131,3.082,0.0437440326423917
132,3.090,0.0610062914784165
133,3.097,0.0515567310289678
134,3.105,0.0320648006262192
135,3.112,0.036988658669401
136,3.120,0.0586173576569266
137,3.127,0.0812237499306546
138,3.135,0.0723802708396209
139,3.142,0.0422752807373276
140,3.150,0.0289636106098037
141,3.157,0.054941053942745
142,3.165,0.0539279690443725
143,3.172,0.0495969205050418
144,3.180,0.039474919424359
145,3.187,0.0462612610579986
146,3.195,0.0352146541093687
147,3.203,0.0295918117258251
148,3.210,0.0398244115945399
149,3.218,0.0432441261204874
150,3.225,0.014811389693237
151,3.233,0.0329894064941662
152,3.240,0.0140681658376624
153,3.248,0.0404570366620826
154,3.255,0.0473716728898393
155,3.263,0.0566840908421284
156,3.270,0.0266012204974415
157,3.278,0.0449871630198707
158,3.285,0.0340467309077515
159,3.293,0.0238583705542495
160,3.301,0.0348032266178899
161,3.308,0.0357941917586561
162,3.316,0.0450004348744345
163,3.323,0.0254686889079945
164,3.331,0.0248626075495794
165,3.338,0.027963797565995
166,3.346,0.0251634362530263
167,3.353,0.0168773750536736
168,3.361,0.02534924221692
169,3.368,0.0222480522005045
170,3.376,0.0319320820805809
171,3.383,0.0209828020654191
172,3.391,0.0179170036611738
173,3.398,0.0215667636662277
174,3.406,0.0265658288852713
175,3.414,0.00863997732105492
176,3.421,0.01811165752811
177,3.429,0.0180762659159398
178,3.436,0.0181868647039717
179,3.444,0.0329097753667832
180,3.451,0.0309676606489424
181,3.459,0.0288176202096015
182,3.466,0.0146477034869497
183,3.474,0.0166296337684821
184,3.481,0.0351173271759006
185,3.489,0.0874526736726133
186,3.496,0.0520654854539147
187,3.504,0.0287999244035164
188,3.512,0.031264065400868
189,3.519,0.0253713619745264
190,3.527,0.028012461032729
191,3.534,0.0140947095467901
192,3.542,0.0327283933544108
193,3.549,0.021699482211866
194,3.557,0.0263932947759415
195,3.564,0.023707956202526
196,3.572,0.0203899925615679
197,3.579,0.0114890021007576
198,3.587,0.0233053766140898
199,3.594,0.0157846590279181
200,3.602,0.0121747145865556
201,3.609,0
202,3.617,0.0236946843479622
203,3.625,0.0202174584522381
204,3.632,0.0180718419644185
205,3.640,0.0223409551824513
206,3.647,0.00987425979549134
207,3.655,0.0314056318495488
208,3.662,0.00725085654337379
209,3.670,0.0156475165307585
210,3.677,0.0242078627244304
211,3.685,0.0200935878096423
212,3.692,0.0215844594723128
213,3.700,0.0289945782704526
214,3.707,0.0381300381618906
215,3.715,0.0291494165736973
216,3.722,0.0127321324782366
217,3.730,0.019881238136621
218,3.738,0.0220887899457385
219,3.745,0.0198148788638018
220,3.753,0.0238937621664197
221,3.760,0.0167800481202055
222,3.768,0.0311755863704424
223,3.775,0.0280965161116333
224,3.783,0.0225621527585152
225,3.790,0.01811165752811
226,3.798,0.0210580092412808
227,3.805,0.0236415969297069
228,3.813,0.023579661608409
229,3.820,0.0116217206463959
230,3.828,0.013201071339492
231,3.836,0.0227391108193663
232,3.843,0.0273665641106225
233,3.851,0.0193282441964613
234,3.858,0.0201422512763764
235,3.866,0.0196821603181635
236,3.873,0.0170808768236524
237,3.881,0.0126701971569387
238,3.888,0.0225931204191641
239,3.896,0.0216862103573022
240,3.903,0.0195096262088337
241,3.911,0.0217437217270788
242,3.918,0.0207085170710999
243,3.926,0.0130373851332047
244,3.933,0.0250970769802072
245,3.941,0.0128648510238749
246,3.949,0.0124224558717472
247,3.956,0.0130019935210345
248,3.964,0.0448898360864026
249,3.971,0.0815290025856227
250,3.979,0.0531449296251064
251,3.986,0.0217879612422916
252,3.994,0.0204828955435147
253,4.001,0.0330292220578577
254,4.009,0.0257518218053562
255,4.016,0.0174923043151312
256,4.024,0.0206908212650148
257,4.031,0.0185363568741526
258,4.039,0.0321753994142511
259,4.047,0.027804535311229
260,4.054,0.0215446439086213
261,4.062,0.024871455452622
262,4.069,0.0302642523570592
263,4.077,0.0308747576669955
264,4.084,0.0347988026663687
265,4.092,0.030388122999655
266,4.099,0.0284017687666014
267,4.107,0.017664838424461
268,4.114,0.0258535726903456
269,4.122,0.017952395273344
270,4.129,0.029463517131708
271,4.137,0.0212703589143021
272,4.144,0.0168065918293331
273,4.152,0.0146963669536838
274,4.160,0.0203059374826636
275,4.167,0.0206421577982807
276,4.175,0.0169216145688864
277,4.182,0.0163907403863331
278,4.190,0.0247962482767603
279,4.197,0.0195804094331741
280,4.205,0.0235177262871111
281,4.212,0.0177577414064078
282,4.220,0.0177533174548865
283,4.227,0.014652127438471
284,4.235,0.0185850203408867
285,4.242,0.00971057358920407
286,4.250,0.0145105609897901
287,4.258,0.0153953512940456
288,4.265,0.0208500835197808
289,4.273,0.0118650379800662
290,4.280,0.0126392294962898
291,4.288,0.0218410486605469
292,4.295,0.0212261193990894
293,4.303,0.0136390425400985
294,4.310,0.00483980296427756
295,4.318,0.0186071400984931
296,4.325,0.0153953512940456
297,4.333,0.0149529561419179
298,4.340,0.0104228297841297
299,4.348,0.00531758972857553
300,4.355,0.0204121123191743
301,4.363,0.0197971830577167
302,4.371,0.022097637848781
303,4.378,0.011112966221449
304,4.386,0.0215357960055788
305,4.393,0.0160854877313649
306,4.401,0.0145813442141306
307,4.408,0.0287999244035164
308,4.416,0.0953273073804872
309,4.423,0.129980119646654
310,4.431,0.0535298134074575
311,4.438,0.0286716298093994
312,4.446,0.0150104675116945
313,4.453,0.0163553487741628
314,4.461,0.0237920112814303
315,4.468,0.03078627863657
316,4.476,0.0258801163994733
317,4.484,0.0240751441787921
318,4.491,0.0305518092059423
319,4.499,0.0259022361570797
320,4.506,0.0265260133215798
321,4.514,0.0223542270370151
322,4.521,0.014652127438471
323,4.529,0.0289414908521973
324,4.536,0.0230487874258557
325,4.544,0.011192597348832
326,4.551,0.0150060435601732
327,4.559,0.0180497222068121
328,4.566,0.015448438712301
329,4.574,0.0280257328872928
330,4.582,0.0138823598737687
331,4.589,0.0155501895972903
332,4.597,0.0169127666658438
333,4.604,0.0176294468122908
334,4.612,0.0159085296705138
335,4.619,0.0101352729352467
336,4.627,0.022814317995228
337,4.634,0.00266321881580904
338,4.642,0.0313658162858573
339,4.649,0.0130019935210345
340,4.657,0.026083618169452
341,4.664,0.0232124736321429
342,4.672,0.0177223497942376
343,4.679,0.0102325998687148
344,4.687,0.0197617914455465
345,4.695,0.0284858238455057
346,4.702,0.0299324559929634
347,4.710,0.0105511243782468
348,4.717,0.0174701845575248
349,4.725,0.00539722085595853
350,4.732,0.027804535311229
351,4.740,0.0351084792728581
352,4.747,0.033241571730879
353,4.755,0.0280876682085907
354,4.762,0.0219206797879299
355,4.770,0.0286849016639632
356,4.777,0.0131037444060239
357,4.785,0.0182001365585356
358,4.793,0.0254598410049519
359,4.800,0.0224604018735258
360,4.808,0.0237035322510047
361,4.815,0.0120331481378747
362,4.823,0.0304589062239955
363,4.830,0.0219870390607491
364,4.838,0.0278089592627502
365,4.845,0.0393422008787206
366,4.853,0.0157138758035776
367,4.860,0.0221463013155151
368,4.868,0.0192707328266847
369,4.875,0.0221241815579087
370,4.883,0.0261720971998776
371,4.890,0.0269949521828352
372,4.898,0.0236194771721005
373,4.906,0.0290520896402292
374,4.913,0.0350775116122092
375,4.921,0.0281761472390163
376,4.928,0.0253536661684412
377,4.936,0.0155590375003329
378,4.943,0.0142451238985135
379,4.951,0.0247387369069837
380,4.958,0.0220357025274831
381,4.966,0.0197706393485891
382,4.973,0.0172224432723332
383,4.981,0.0259862912359839
384,4.988,0.0240574483727069
385,4.996,0.0168375594899821
386,5.004,0.0183638227648228
387,5.011,0.0221507252670363
388,5.019,0.0222480522005045
389,5.026,0.0172755306905886
390,5.034,0.0179789389824717
391,5.041,0.018062994061376
392,5.049,0.0196379208029507
393,5.056,0.0298749446231868
394,5.064,0.0230620592804195
395,5.071,0.0161695428102692
396,5.079,0.0324939239237831
397,5.086,0.0130241132786409
398,5.094,0.0243803968337602
399,5.101,0.0218720163211959
400,5.109,0.0192972765358124
401,5.117,0.0246723776341645
402,5.124,0.0365683832748797
403,5.132,0.0276850886201545
404,5.139,0.0153201441181839
405,5.147,0.0136346185885772
406,5.154,0.0231328425047599
407,5.162,0.0190583831536634
408,5.169,0.015258208796886
409,5.177,0.0104449495417361
410,5.184,0.0265923725943989
411,5.192,0.0198679662820572
412,5.199,0.0242697980457283
413,5.207,0.0218145049514193
414,5.215,0.0184213341345994
415,5.222,0.02012013151877
416,5.230,0.0226860234011109
417,5.237,0.0221949647822491
418,5.245,0.0384839542835928
419,5.252,0.0258137571266541
420,5.260,0.0226196641282918
421,5.267,0.026610068400484
422,5.275,0.0256898864840583
423,5.282,0.0257562457568775
424,5.290,0.0157404195127053
425,5.297,0.0294590931801867
426,5.305,0.0253315464108349
427,5.312,0.0117455912889917
428,5.320,0.0117809829011619
429,5.328,0.0167667762656417
430,5.335,0.012802915702577
431,5.343,0.00731279186467168
432,5.350,0.0125905660295557
433,5.358,0.0160368242646309
434,5.365,0.0247608566645901
435,5.373,0.0309101492791658
436,5.380,0.0136346185885772
437,5.388,0.0262605762303031
438,5.395,0.0297554979321123
439,5.403,0.0146742471960774
440,5.410,0.0254598410049519
441,5.418,0.0195538657240465
442,5.425,0.0115022739553215
443,5.433,0.0233496161293025
444,5.441,0.0175144240727375
445,5.448,0.0269905282313139
446,5.456,0.0409702150385508
447,5.463,0.0365993509355286
448,5.471,0.0377274585734544
449,5.478,0.0434830195026364
450,5.486,0.0397049649034654
451,5.493,0.0283132897361759
452,5.501,0.0221993887337704
453,5.508,0.0298660967201443
454,5.516,0.0350200002424325
455,5.523,0.0247741285191539
456,5.531,0.0306491361394104
457,5.539,0.0388909578235503
458,5.546,0.0289945782704526
459,5.554,0.0264065666305053
460,5.561,0.0248626075495794
461,5.569,0.0313569683828148
462,5.576,0.0212128475445255
463,5.584,0.0289414908521973
464,5.591,0.0331752124580598
465,5.599,0.0271763341952076
466,5.606,0.0200758920035572
467,5.614,0.0573432596187987
468,5.621,0.13266988217159
469,5.629,0.100994389279244
470,5.636,0.0883861274436028
471,5.644,0.0632271151420978
472,5.652,0.0488536966494672
473,5.659,0.0472035627320307
474,5.667,0.0412356521298274
475,5.674,0.0427530675016256
476,5.682,0.0414303059967636
477,5.689,0.0278620466810056
478,5.697,0.0333300507613045
479,5.704,0.0244644519126645
480,5.712,0.0462789568640837
481,5.719,0.0332371477793577
482,5.727,0.0509993131372868
483,5.734,0.043589194339147
484,5.742,0.0307774307335274
485,5.750,0.0346351164600814
486,5.757,0.0298262811564528
487,5.765,0.0359092144982093
488,5.772,0.0280743963540269
489,5.780,0.037068289796784
490,5.787,0.0352146541093687
491,5.795,0.035378340315656
492,5.802,0.0251811320591114
493,5.810,0.0337724459134323
494,5.817,0.0301757733266337
495,5.825,0.0267162432369947
496,5.832,0.0257473978538349
497,5.840,0.0283973448150802
498,5.847,0.0323567814266235
499,5.855,0.0319409299836234
500,5.863,0.0205802224769828
501,5.870,0.0300740224416443
502,5.878,0.0305695050120274
503,5.885,0.0446288229466472
504,5.893,0.0320072892564426
505,5.900,0.0322284868325065
506,5.908,0.0268578096856756
507,5.915,0.0292600153617293
508,5.923,0.0321975191718575
509,5.930,0.0348253463754963
510,5.938,0.0335954878525812
511,5.945,0.0370904095543904
512,5.953,0.0388157506476886
513,5.961,0.0358074636132199
514,5.968,0.0351881104002411
515,5.976,0.0424478148466574
516,5.983,0.0279062861962184
517,5.991,0.0252917308471434
518,5.998,0.0483051266608288
519,6.006,0.0409702150385508
520,6.013,0.046442643070371
521,6.021,0.043509563211764
522,6.028,0.0417355586517318
523,6.036,0.0474822716778712
524,6.043,0.0483228224669139
525,6.051,0.0362321629592626
526,6.058,0.0287202932761334
527,6.066,0.0395058870850079
528,6.074,0.0413108593056891
529,6.081,0.039554550551742
530,6.089,0.0349624888726559
531,6.096,0.0331575166519747
532,6.104,0.0420231155006148
533,6.111,0.0398199876430186
534,6.119,0.0491677972074779
535,6.126,0.0499065971115313
536,6.134,0.091642155763263
537,6.141,0.076543209221143
538,6.149,0.0549277820881812
539,6.156,0.0512824460346486
540,6.164,0.045438406075041
541,6.171,0.042615925004466
542,6.179,0.0456065162328496
543,6.187,0.0447925091529345
544,6.194,0.0387184237142205
545,6.202,0.0564009579447666
546,6.209,0.0386476404898801
547,6.217,0.0470133328166158
548,6.224,0.042775187259232
549,6.232,0.0551224359551174
550,6.239,0.0485572918975416
551,6.247,0.0515301873198401
552,6.254,0.0489333277768502
553,6.262,0.0526538710062446
554,6.269,0.0397359325641143
555,6.277,0.0312242498371765
556,6.285,0.0356658971645391
557,6.292,0.0309189971822083
558,6.300,0.044434169079711
559,6.307,0.0497207911476376
560,6.315,0.0341573296957834
561,6.322,0.0513665011135528
562,6.330,0.0405897552077209
563,6.337,0.0311623145158786
564,6.345,0.033847653089294
565,6.352,0.036590503032486
566,6.360,0.0304898738846444
567,6.367,0.0268224180735054
568,6.375,0.0312906091099956
569,6.382,0.0285123675546334
570,6.390,0.0367364934326882
571,6.398,0.0341882973564324
572,6.405,0.048659042782531
573,6.413,0.0522999548845424
574,6.420,0.047606142320467
575,6.428,0.0364710563414116
576,6.435,0.0425893812953383
577,6.443,0.0350155762909113
578,6.450,0.0494376582502759
579,6.458,0.0327328173059321
580,6.465,0.039395288296976
581,6.473,0.0343431356596771
582,6.480,0.024951086580005
583,6.488,0.0325824029542087
584,6.496,0.0308614858124317
585,6.503,0.0456817234087113
586,6.511,0.0521229968236913
587,6.518,0.064235776088949
588,6.526,0.0671069206262581
589,6.533,0.0754372213408236
590,6.541,0.0663681207222048
591,6.548,0.069832074763365
592,6.556,0.0688455335741202
593,6.563,0.0614575345335868
594,6.571,0.0598781838404907
595,6.578,0.0596923778765971
596,6.586,0.0554630802222558
597,6.593,0.0634527366696829
598,6.601,0.0398907708673591
599,6.609,0.0510789442646698
600,6.616,0.0600551419013418
601,6.624,0.0590995683727459
602,6.631,0.0478229159450096
603,6.639,0.0509196820099038
604,6.646,0.0518177441687231
605,6.654,0.054972021603394
606,6.661,0.0417178628456467
607,6.669,0.038997132660061
608,6.676,0.0539722085595853
609,6.684,0.041819613730636
610,6.691,0.0390944595935291
611,6.699,0.0470398765257435
612,6.707,0.0427044040348915
613,6.714,0.0511497274890102
614,6.722,0.0493005157531163
615,6.729,0.0461506622699667
616,6.737,0.0420496592097425
617,6.744,0.035776495952571
618,6.752,0.0374177819669649
619,6.759,0.0365064479535818
620,6.767,0.0378955687312629
621,6.774,0.025397905683654
622,6.782,0.0250882290771646
623,6.789,0.033927284216677
624,6.797,0.0333433226158684
625,6.804,0.0372142801969862
626,6.812,0.0399040427219229
627,6.820,0.0430008087868171
628,6.827,0.0296360512410378
629,6.835,0.031471991122368
630,6.842,0.0404614606136038
631,6.850,0.0391121553996142
632,6.857,0.0385104979927205
633,6.865,0.0326708819846342
634,6.872,0.0574140428431392
635,6.880,0.0452924156748389
636,6.887,0.0443147223886365
637,6.895,0.0438325116728173
638,6.902,0.0596260186037779
639,6.910,0.0868465923141982
640,6.917,0.101096140164233
641,6.925,0.0845992249413893
642,6.933,0.072526261239823
643,6.940,0.0533838230072554
644,6.948,0.0520610615023934
645,6.955,0.0708805512739078
646,6.963,0.0490395026133609
647,6.970,0.0531758972857553
648,6.978,0.0421204424340829
649,6.985,0.0634129211059914
650,6.993,0.0466328729857859
651,7.000,0.0554807760283409
652,7.008,0.0561310969019687
653,7.015,0.0560780094837134
654,7.023,0.111027911329501
655,7.031,0.17775879607645
656,7.038,0.140150784194071
657,7.046,0.0809008014696013
658,7.053,0.0632271151420978
659,7.061,0.0714423931171101
660,7.068,0.0538217942078618
661,7.076,0.0572016931701178
662,7.083,0.0678678402879178
663,7.091,0.0496765516324248
664,7.098,0.0722740960031102
665,7.106,0.0414347299482849
666,7.113,0.0566265794723518
667,7.121,0.060090533513512
668,7.128,0.0607187346295334
669,7.136,0.0553126658705324
670,7.144,0.0651426861508109
671,7.151,0.0868156246535493
672,7.159,0.112045420179395
673,7.166,0.137841481499964
674,7.174,0.104595485817563
675,7.181,0.0812901092034737
676,7.189,0.0659213016185557
677,7.196,0.0765387852696217
678,7.204,0.0773704881556219
679,7.211,0.0551091641005536
680,7.219,0.0715485679536207
681,7.226,0.169406375604279
682,7.234,0.238150158293409
683,7.242,0.210951704340595
684,7.249,0.129223623936515
685,7.257,0.108798239762777
686,7.264,0.0817457762101653
687,7.272,0.0755257003712492
688,7.279,0.0600507179498205
689,7.287,0.0759680955233769
690,7.294,0.0575954248555115
691,7.302,0.0534457583285533
692,7.309,0.0549941413610004
693,7.317,0.0694073754173224
694,7.324,0.0729863521980359
695,7.332,0.0660540201641941
