#"+EI TIC Scan EA-PET.d "
#Point,X(Minutes),Y(Counts)
0,2.095,0.111224883447984
1,2.102,0.100646488764177
2,2.110,0.0977959582295033
3,2.117,0.0872970460194129
4,2.125,0.0879184544502924
5,2.132,0.0743052744063761
6,2.140,0.0685825362987425
7,2.147,0.0875029778831346
8,2.155,0.0844284512861673
9,2.162,0.069370135356485
10,2.170,0.0650383405389013
11,2.178,0.0603958415058778
12,2.185,0.0681020286167253
13,2.193,0.0598105614721426
14,2.200,0.067968353547292
15,2.208,0.0563747509037338
16,2.215,0.0550994184845452
17,2.223,0.0587050325195316
18,2.230,0.0524223042561636
19,2.238,0.0373531498073381
20,2.245,0.0551680624391191
21,2.253,0.0429494385249671
22,2.260,0.0499583475709325
23,2.268,0.0467465330648174
24,2.276,0.0513709678992688
25,2.283,0.0480290911634348
26,2.291,0.0528161037850349
27,2.298,0.0377830777333535
28,2.306,0.0401314235477233
29,2.313,0.0364752297567352
30,2.321,0.0489648166494683
31,2.328,0.036334329007873
32,2.336,0.0430831135944005
33,2.343,0.0442139324250124
34,2.351,0.0478087079408555
35,2.358,0.0366450332233127
36,2.366,0.0353299595672656
37,2.373,0.0339679189949311
38,2.381,0.0404312892440198
39,2.389,0.0389355736022519
40,2.396,0.111217657768556
41,2.404,0.359141557490865
42,2.411,0.174774734024547
43,2.419,0.047125881234831
44,2.426,0.041381466088911
45,2.434,0.0395027894374151
46,2.441,0.0402181317008693
47,2.449,0.0376313384653481
48,2.456,0.0359260781201441
49,2.464,0.0443006405781584
50,2.471,0.042486995041522
51,2.479,0.0329093569586075
52,2.487,0.0384695172790924
53,2.494,0.0333031564874787
54,2.502,0.0325914270637389
55,2.509,0.0255680666589159
56,2.517,0.0315509292259874
57,2.524,0.0261858622500809
58,2.532,0.0378914629247859
59,2.539,0.0284258228730183
60,2.547,0.0327648433700309
61,2.554,0.0283933073155886
62,2.562,0.0455831986767758
63,2.569,0.0278802840761416
64,2.577,0.030842812641962
65,2.584,0.038848865449106
66,2.592,0.0291411651364725
67,2.600,0.0321325964200082
68,2.607,0.033357349083195
69,2.615,0.0329599367146093
70,2.622,0.0277971887627101
71,2.630,0.0369593502784668
72,2.637,0.0411538571869028
73,2.645,0.0414067559669119
74,2.652,0.0332561895711913
75,2.660,0.0352468642538341
76,2.667,0.0222370284422252
77,2.675,0.0309620363525377
78,2.682,0.0372845058527642
79,2.690,0.0247262750054572
80,2.697,0.0322048532142965
81,2.705,0.0381913286210824
82,2.713,0.0380359765133626
83,2.720,0.0357273719358513
84,2.728,0.0467754357825328
85,2.735,0.0542720781899442
86,2.743,0.0337728256503527
87,2.750,0.0411719213854749
88,2.758,0.0399616200811458
89,2.765,0.0428771817306788
90,2.773,0.0617506563987835
91,2.780,0.0518442499018572
92,2.788,0.0377035952596364
93,2.795,0.0293940639164816
94,2.803,0.0339245649183581
95,2.811,0.0563458481860185
96,2.818,0.0550560644079723
97,2.826,0.0411719213854749
98,2.833,0.0321253707405794
99,2.841,0.0358538213258558
100,2.848,0.0472776205028365
101,2.856,0.0453483640953388
102,2.863,0.0275623541812731
103,2.871,0.0349180958398223
104,2.878,0.0306585578165268
105,2.886,0.0538638273022153
106,2.893,0.109624395454498
107,2.901,0.196473449349324
108,2.908,0.075905762399862
109,2.916,0.0629465063442549
110,2.924,0.0675311999418477
111,2.931,0.0522741778278726
112,2.939,0.0372989572116219
113,2.946,0.036186202579582
114,2.954,0.151641721333147
115,2.961,4.04863850496646
116,2.969,30.1611781730433
117,2.976,73.2404260289494
118,2.984,100
119,2.991,4.2045144744449
120,2.999,0.120737490416039
121,3.006,0.0851582449084792
122,3.014,0.0715053236277044
123,3.022,0.120658007942322
124,3.029,0.0913289751407002
125,3.037,0.076245369333017
126,3.044,0.075714281894998
127,3.052,0.0407745090168892
128,3.059,0.0510132967675417
129,3.067,0.0653598832734842
130,3.074,0.0494164216137702
131,3.082,0.0477653538642825
132,3.089,0.052469271172451
133,3.097,0.0339968217126464
134,3.104,0.0341015940643645
135,3.112,0.0475630348402753
136,3.119,0.053043712687043
137,3.127,0.0821487494263714
138,3.135,0.0624118060665215
139,3.142,0.0411249544691875
140,3.150,0.0369159962018939
141,3.157,0.0350662222681133
142,3.165,0.0582028477992279
143,3.172,0.044000774881862
144,3.180,0.0355033758735575
145,3.187,0.0434335590466988
146,3.195,0.0302214042110826
147,3.202,0.0289027177153211
148,3.210,0.0414934641200578
149,3.217,0.0364282628404478
150,3.225,0.029823991842497
151,3.233,0.0315292521877009
152,3.240,0.0276418366549902
153,3.248,0.0405758028325964
154,3.255,0.0533182885053386
155,3.263,0.0511794873944048
156,3.270,0.028693173011885
157,3.278,0.0255897436972024
158,3.285,0.0342930745692285
159,3.293,0.0100509200855029
160,3.300,0.0321253707405794
161,3.308,0.0396906571025647
162,3.315,0.0458830643730722
163,3.323,0.0238086137179957
164,3.330,0.0188445719503894
165,3.338,0.032313238405729
166,3.346,0.0236135203734173
167,3.353,0.0212037562839024
168,3.361,0.0192708870366903
169,3.368,0.0183243230315136
170,3.376,0.0179305235026423
171,3.383,0.0256981288886349
172,3.391,0.0186169630483812
173,3.398,0.020434221424732
174,3.406,0.0203222233935851
175,3.413,0.011452701894696
176,3.421,0.0196610737258472
177,3.428,0.0224718630236622
178,3.436,0.0220925148536486
179,3.444,0.018519416376092
180,3.451,0.0237363569237074
181,3.459,0.0133494427447639
182,3.466,0.0253260063980501
183,3.474,0.0113118011458338
184,3.481,0.0307344274505296
185,3.489,0.0786009408268157
186,3.496,0.0498788650972154
187,3.504,0.0230715944162551
188,3.511,0.0302503069287979
189,3.519,0.0190179882566813
190,3.526,0.0165720957700222
191,3.534,0.00988834229835423
192,3.541,0.0293001300839068
193,3.549,0.0175873037297729
194,3.557,0.0314425440345549
195,3.564,0.00838540097715753
196,3.572,0.0155207594131274
197,3.579,0.0117308905527059
198,3.587,0.020372803149587
199,3.594,0.0145814210873795
200,3.602,0.00873223358974138
201,3.609,0.0156797243605617
202,3.617,0.0209869859010375
203,3.624,0.0151811524799724
204,3.632,0.0107771008681004
205,3.639,0.0185736089718082
206,3.647,0.0181220040075063
207,3.654,0.0126160362827377
208,3.662,0.0132374447136171
209,3.670,0.0199717779412869
210,3.677,0.0189529571418218
211,3.685,0.0150727672885399
212,3.692,0.0178329768303531
213,3.700,0.00547706500705335
214,3.707,0.0188012178738164
215,3.715,0.0208135695947456
216,3.722,0.00708116584025367
217,3.730,0.0154485026188391
218,3.737,0.00874668494859905
219,3.745,0.0137649193119217
220,3.752,0.0217095538439206
221,3.760,0.0107626495092427
222,3.768,0.0144043919413732
223,3.775,0.0110191611289662
224,3.783,0.0281440213752939
225,3.790,0.0258173525992106
226,3.798,0.0120379819284312
227,3.805,0.0148632225851039
228,3.813,0.0100545329252173
229,3.820,0.0188554104695326
230,3.828,0.0124426199764457
231,3.835,0.0222478669613684
232,3.843,0.0142526526733677
233,3.850,0.0102315620712237
234,3.858,0.0192961769146912
235,3.865,0.0110552895261103
236,3.873,0.0135589874482
237,3.881,0.00991363217635513
238,3.888,0.0138154990679235
239,3.896,0.00929222374547573
240,3.903,0.0138516274650676
241,3.911,0.0121716569978646
242,3.918,0.0160735238894329
243,3.926,0.0160121056142879
244,3.933,0.0044401800090162
245,3.941,0.0121355286007204
246,3.948,0.0173452434689071
247,3.956,0.0351131891844007
248,3.963,0.0396978827819935
249,3.971,0.0829182842855418
250,3.979,0.0379059142836436
251,3.986,0.0154376640996959
252,3.994,0.0157881095519941
253,4.001,0.027500935906128
254,4.009,0.025289878000906
255,4.016,0.00441850297072971
256,4.024,0.0149752206162507
257,4.031,0.0254271659100537
258,4.039,0.00945841437233883
259,4.046,0.0127677755507431
260,4.054,0.0299359898736438
261,4.061,0.0193864979075516
262,4.069,0.0199609394221436
263,4.076,0.0252103955271888
264,4.084,0.0219841296622161
265,4.092,0.0116116668421302
266,4.099,0.0156399831237031
267,4.107,0.0210411784967538
268,4.114,0.0164203565020168
269,4.122,0.012305332067298
270,4.129,0.0179522005409288
271,4.137,0.0182303891989388
272,4.144,0.0181111654883631
273,4.152,0.0252284597257609
274,4.159,0.0233570087536939
275,4.167,0.0125943592444512
276,4.174,0.019624945328703
277,4.182,0.0215686530950584
278,4.190,0.00972576451120555
279,4.197,0.0161602320425789
280,4.205,0.0230752072559695
281,4.212,0.0153401174274067
282,4.220,0.0254199402306249
283,4.227,0.0323674310014452
284,4.235,0.0251742671300447
285,4.242,0.0261244439749359
286,4.250,0.0232558492416902
287,4.257,0.0114635404138392
288,4.265,0.0248852399528915
289,4.272,0.0144405203385173
290,4.280,0.0205100910587347
291,4.287,0.0227392131625289
292,4.295,0.0208027310756024
293,4.303,0.0135445360893423
294,4.310,0.0139636254962145
295,4.318,0.0147150961568129
296,4.325,0.00803134268514485
297,4.333,0.0154521154585535
298,4.340,0.0212182076427601
299,4.348,0.0175547881723431
300,4.355,0.010878260380104
301,4.363,0.0106651028369535
302,4.370,0.0148740611042471
303,4.378,0.0122692036701538
304,4.385,0.0215469760567719
305,4.393,0.014837932707103
306,4.400,0.0173091150717629
307,4.408,0.0317460225705658
308,4.416,0.101661696723928
309,4.423,0.118927457719117
310,4.431,0.0446944401070297
311,4.438,0.0235882304954164
312,4.446,0.0128075167876017
313,4.453,0.0209580831833222
314,4.461,0.0217348437219215
315,4.468,0.0238266779165678
316,4.476,0.00925248250861717
317,4.483,0.0165142903345916
318,4.491,0.0133169271873342
319,4.498,0.0170453777726106
320,4.506,0.0164492592197321
321,4.514,0.00512300671504066
322,4.521,0.0137613064722073
323,4.529,0.0172043427200449
324,4.536,0.0255283254220574
325,4.544,0.0235159737011281
326,4.551,0.0255608409794871
327,4.559,0.0229523707056794
328,4.566,0.0342461076529411
329,4.574,0.0154954695351265
330,4.581,0.0170562162917539
331,4.589,0.0218071005162098
332,4.596,0.00941144745605143
333,4.604,0.0215144604993421
334,4.611,0.00990640649692631
335,4.619,0.0229993376219668
336,4.627,0.0253874246731952
337,4.634,0.013689049677919
338,4.642,0.0143718763839434
339,4.649,0.0135517617687712
340,4.657,0.00962460499920192
341,4.664,0.00102965931860831
342,4.672,0.0170020236960376
343,4.679,0.0135300847304847
344,4.687,0.013324152866763
345,4.694,0.0036272910732728
346,4.702,0.0187759279958155
347,4.709,0.0103074317052264
348,4.717,0.0215469760567719
349,4.725,0.0144658102165182
350,4.732,0.0126738417181683
351,4.740,0.0196502352067039
352,4.747,0.0229632092248226
353,4.755,0.0195599142138435
354,4.762,0.00639833913422921
355,4.770,0.0166154498465952
356,4.777,0.0235448764188434
357,4.785,0.0169839594974656
358,4.792,0.0133169271873342
359,4.800,0.0055131934041975
360,4.807,0.012836419505317
361,4.815,0.0147548373936714
362,4.822,0.0155785648485581
363,4.830,0.0211423380087574
364,4.838,0.0198308771924247
365,4.845,0.0136782111587757
366,4.853,0.00502546004275145
367,4.860,0.0217384565616359
368,4.868,0.0168936385046052
369,4.875,0.0100906613223615
370,4.883,0.0213049157959061
371,4.890,0.0121680441581502
372,4.898,0.0243722167134445
373,4.905,0.0122655908304394
374,4.913,0.01232339626587
375,4.920,0.00868526667345399
376,4.928,0
377,4.936,0.0110661280452536
378,4.943,0.0109143887772481
379,4.951,0.0134795049744829
380,4.958,0.0121355286007204
381,4.966,0.0198706184292833
382,4.973,0.0107662623489571
383,4.981,0.0118934683398546
384,4.988,0.00979440846577944
385,4.996,0.0230029504616812
386,5.003,0.0191408248069714
387,5.011,0.013515633371627
388,5.018,0.0198995211469986
389,5.026,0.021583104453916
390,5.033,0.0218323903942107
391,5.041,0.00346832612583853
392,5.049,0.0149029638219624
393,5.056,0.0174464029809107
394,5.064,0.0334910241526283
395,5.071,0.0147403860348138
396,5.079,0.0119910150121438
397,5.086,0.0242168646057247
398,5.094,0.0204197700658744
399,5.101,0.0107807137078148
400,5.109,0.0199970678192878
401,5.116,0.0151016700062553
402,5.124,0.0196213324889886
403,5.131,0.021138725169043
404,5.139,0.0222731568393693
405,5.147,0.022009419540217
406,5.154,0.0192708870366903
407,5.162,0.0215794916142016
408,5.169,0.0179341363423567
409,5.177,0.0158459149874248
410,5.184,0.0131146081633269
411,5.192,0.0113479295429779
412,5.199,0.0148596097453895
413,5.207,0.0236460359308471
414,5.214,0.020051260415004
415,5.222,0.0134903434936261
416,5.229,0.0113732194209788
417,5.237,0.021521686178771
418,5.244,0.0195743655727012
419,5.252,0.0180316830146459
420,5.260,0.0196068811301309
421,5.267,0.0243649910340157
422,5.275,0.0210339528173249
423,5.282,0.0130604155676107
424,5.290,0.0137143395559199
425,5.297,0.0161277164851492
426,5.305,0.0203836416687302
427,5.312,0.0225910867342378
428,5.320,0.00910435608032614
429,5.327,0.0243397011560148
430,5.335,0.0119874021724294
431,5.342,0.0239278374285714
432,5.350,0.028266857925584
433,5.357,0.00573718946649124
434,5.365,0.021669812607062
435,5.373,0.00246034384551671
436,5.380,0.0124064915793016
437,5.388,0.0262617318840836
438,5.395,0.0190179882566813
439,5.403,0.0190757936921119
440,5.410,0.0170670548108971
441,5.418,0.00930306226461898
442,5.425,0.028971361669895
443,5.433,0.0275045487458424
444,5.440,0.0297119938113501
445,5.448,0.0168683486266043
446,5.455,0.0160554596908609
447,5.463,0.0215505888964863
448,5.471,0.0311065499411143
449,5.478,0.0278766712364272
450,5.486,0.0129303533378918
451,5.493,0.0135445360893423
452,5.501,0.0177282044786351
453,5.508,0.0210484041761826
454,5.516,0.0138444017856388
455,5.523,0.0150583159296823
456,5.531,0.0224827015428054
457,5.538,0.0151269598842562
458,5.546,0.0246937594480275
459,5.553,0.0173524691483359
460,5.561,0.0116369567201312
461,5.568,0.0120741103255754
462,5.576,0.0157989480711374
463,5.584,0.0238086137179957
464,5.591,0.0143935534222299
465,5.599,0.0250694947783266
466,5.606,0.0207087972430276
467,5.614,0.0301780501345096
468,5.621,0.0395858847508467
469,5.629,0.04889255985518
470,5.636,0.033931790597787
471,5.644,0.0195490756947003
472,5.651,0.0305321084265223
473,5.659,0.0253549091157654
474,5.666,0.024672082409741
475,5.674,0.0168213817103169
476,5.682,0.00863829975716659
477,5.689,0.0293759997179095
478,5.697,0.0229270808276785
479,5.704,0.0208460851521753
480,5.712,0.0178727180672117
481,5.719,0.0401422620668666
482,5.727,0.0424364152855202
483,5.734,0.0325336216283083
484,5.742,0.0358502084861414
485,5.749,0.0307416531299584
486,5.757,0.0189710213403939
487,5.764,0.0314425440345549
488,5.772,0.022200900045081
489,5.779,0.016622675526024
490,5.787,0.0245564715388797
491,5.795,0.020242740919868
492,5.802,0.0207340871210285
493,5.810,0.0194370776635534
494,5.817,0.0316412502188478
495,5.825,0.0262581190443692
496,5.832,0.0267566909249585
497,5.840,0.0272191344084036
498,5.847,0.022905403789392
499,5.855,0.024307185598585
500,5.862,0.0218504545927827
501,5.870,0.0206618303267402
502,5.877,0.0271360390949721
503,5.885,0.0132266061944738
504,5.893,0.0271215877361144
505,5.900,0.0188012178738164
506,5.908,0.0171537629640431
507,5.915,0.0280717645810056
508,5.923,0.00974744154949204
509,5.930,0.0151305727239706
510,5.938,0.00819392047229353
511,5.945,0.0159290103008563
512,5.953,0.0216914896453485
513,5.960,0.0210050500996096
514,5.968,0.0186422529263821
515,5.975,0.022435734626518
516,5.983,0.015282311991976
517,5.990,0.0243144112780139
518,5.998,0.0219263242267855
519,6.006,0.0249466582280365
520,6.013,0.0279778307484308
521,6.021,0.0365402608715947
522,6.028,0.0236857771677056
523,6.036,0.0262978602812278
524,6.043,0.0363596188858739
525,6.051,0.0312799662474063
526,6.058,0.0272624884849766
527,6.066,0.0215686530950584
528,6.073,0.0306910733739566
529,6.081,0.0274864845472704
530,6.088,0.0306296550988115
531,6.096,0.0247949189600311
532,6.103,0.0198019744747094
533,6.111,0.032504718910593
534,6.119,0.0302575326082268
535,6.126,0.0373676011661958
536,6.134,0.0608113180730356
537,6.141,0.0606957072021743
538,6.149,0.0316809914557063
539,6.156,0.0328226488054615
540,6.164,0.0273130682409784
541,6.171,0.0203222233935851
542,6.179,0.035525052911844
543,6.186,0.0266519185732405
544,6.194,0.028884653516749
545,6.201,0.0322554329702983
546,6.209,0.0437514889415673
547,6.217,0.0359658193570027
548,6.224,0.0300263108665042
549,6.232,0.0319700186328595
550,6.239,0.0228295341553892
551,6.247,0.0247082108068851
552,6.254,0.0140069795727875
553,6.262,0.0278116401215677
554,6.269,0.0290905853804707
555,6.277,0.0304959800293782
556,6.284,0.0174933698971981
557,6.292,0.0262508933649404
558,6.299,0.0318941489988568
559,6.307,0.0265760489392377
560,6.314,0.0287256885693148
561,6.322,0.0206726688458834
562,6.330,0.0261461210132223
563,6.337,0.0269301072312504
564,6.345,0.02739616355441
565,6.352,0.0327829075686029
566,6.360,0.0257631600034943
567,6.367,0.0209869859010375
568,6.375,0.0199356495441427
569,6.382,0.0220310965785035
570,6.390,0.018414644024374
571,6.397,0.0309620363525377
572,6.405,0.0197188791612778
573,6.412,0.0208713750301762
574,6.420,0.01890237738582
575,6.428,0.0177065274403486
576,6.435,0.0282885349638705
577,6.443,0.0283644045978732
578,6.450,0.0159651386980005
579,6.458,0.0219299370664999
580,6.465,0.0311499040176873
581,6.473,0.0226886334065271
582,6.480,0.0228837267511055
583,6.488,0.0326889737360282
584,6.495,0.0195057216181273
585,6.503,0.0276635136932767
586,6.510,0.0336319249014905
587,6.518,0.0408467658111775
588,6.525,0.0233389445551218
589,6.533,0.0253043293597636
590,6.541,0.0372881186924786
591,6.548,0.0348964188015358
592,6.556,0.0428735688909644
593,6.563,0.0312221608119756
594,6.571,0.0327973589274606
595,6.578,0.0224682501839477
596,6.586,0.0373097957307651
597,6.593,0.0332598024109057
598,6.601,0.0199609394221436
599,6.608,0.034697712617243
600,6.616,0.0344953935932357
601,6.623,0.0171501501243287
602,6.631,0.0305140442279502
603,6.639,0.0266374672143828
604,6.646,0.0259943817452169
605,6.654,0.0242746700411553
606,6.661,0.0244625377063049
607,6.669,0.0353660879644098
608,6.676,0.031843569242855
609,6.684,0.0252934908406204
610,6.691,0.0226525050093829
611,6.699,0.0264170839918035
612,6.706,0.0243649910340157
613,6.714,0.0290255542656112
614,6.721,0.0219010343487846
615,6.729,0.0225585711768081
616,6.736,0.0312619020488342
617,6.744,0.0197622332378508
618,6.752,0.0243397011560148
619,6.759,0.019964552261858
620,6.767,0.0276454494947046
621,6.774,0.0271360390949721
622,6.782,0.0290436184641833
623,6.789,0.0301780501345096
624,6.797,0.0185663832923794
625,6.804,0.02396757866543
626,6.812,0.0271685546524018
627,6.819,0.0259654790275016
628,6.827,0.0250008508237527
629,6.834,0.0339281777580725
630,6.842,0.0289352332727508
631,6.850,0.0288087838827463
632,6.857,0.0390367331142556
633,6.865,0.027248037126119
634,6.872,0.0373603754867669
635,6.880,0.0297300580099222
636,6.887,0.0289532974713229
637,6.895,0.0287220757296003
638,6.902,0.0421546137877958
639,6.910,0.0241409949717219
640,6.917,0.0485746299603115
641,6.925,0.0302972738450853
642,6.932,0.0330936117840427
643,6.940,0.0215325246979142
644,6.947,0.0333428977243373
645,6.955,0.0378336574893553
646,6.963,0.0277140934492785
647,6.970,0.0312582892091198
648,6.978,0.0269445585901081
649,6.985,0.0199103596661418
650,6.993,0.0280428618632903
651,7.000,0.0316051218217036
652,7.008,0.0364354885198767
653,7.015,0.0388416397696771
654,7.023,0.0828857687281121
655,7.030,0.160178861578309
656,7.038,0.116514080789888
657,7.045,0.0760069219118656
658,7.053,0.057516408253489
659,7.060,0.0418547480914994
660,7.068,0.0458469359759281
661,7.076,0.0478954160940015
662,7.083,0.0414103688066263
663,7.091,0.033270640930049
664,7.098,0.0422160320629409
665,7.106,0.0403481939305882
666,7.113,0.0508362676215354
667,7.121,0.0421654523069391
668,7.128,0.0426495728286707
669,7.136,0.0511650360355472
670,7.143,0.0486143711971701
671,7.151,0.0467320817059598
672,7.158,0.0774087037210587
673,7.166,0.110097677457087
674,7.174,0.073842830922931
675,7.181,0.0632644362391235
676,7.189,0.0417246858617804
677,7.196,0.0546478135202434
678,7.204,0.0451604964301892
679,7.211,0.0496909974320658
680,7.219,0.0649588580651842
681,7.226,0.134773372706542
682,7.234,0.214078817277669
683,7.241,0.158708435814543
684,7.249,0.0887241177066069
685,7.256,0.109917035471366
686,7.264,0.25091894384556
687,7.271,0.379153076669011
688,7.279,0.294529532038265
689,7.287,0.221181660156209
690,7.294,0.171219699745562
691,7.302,0.151695913928863
692,7.309,0.133823195861651
693,7.317,0.124740516819611
694,7.324,0.100277979113307
