#"+EI TIC Scan EA-PA.d "
#Point,X(Minutes),Y(Counts)
0,2.095,0.144916296888496
1,2.102,0.137109075100186
2,2.110,0.131112455799468
3,2.117,0.117725213512895
4,2.125,0.114464526732144
5,2.132,0.10914888624313
6,2.140,0.116623630141019
7,2.148,0.11185277270137
8,2.155,0.098689852846888
9,2.163,0.092601101118704
10,2.170,0.0910268383363511
11,2.178,0.104386040318913
12,2.185,0.0813649507255749
13,2.193,0.0828190407764504
14,2.200,0.0997153268221611
15,2.208,0.0752521644510954
16,2.215,0.0968031409626941
17,2.223,0.0687147678587294
18,2.230,0.0935184196356475
19,2.238,0.0730089401301855
20,2.245,0.0712584240083326
21,2.253,0.0790175767040513
22,2.261,0.0698443915346162
23,2.268,0.0678895817692518
24,2.276,0.0816052961885295
25,2.283,0.0804035688737564
26,2.291,0.0629464767478182
27,2.298,0.0700927485130026
28,2.306,0.0695199251596274
29,2.313,0.0609676324361584
30,2.321,0.0633750928234207
31,2.328,0.0561567174193499
32,2.336,0.0486138756402903
33,2.343,0.0687868714976158
34,2.351,0.0567695983498842
35,2.358,0.0509292036000866
36,2.366,0.052884013365451
37,2.374,0.0524954548670076
38,2.381,0.06519771258416
39,2.389,0.0534328021725307
40,2.396,0.151942395922203
41,2.404,0.369971782641498
42,2.411,0.188090353550579
43,2.419,0.0585401432603166
44,2.426,0.0472038489242898
45,2.434,0.0559323949872589
46,2.441,0.0531363761015533
47,2.449,0.0499477929596885
48,2.456,0.0565693104640887
49,2.464,0.0592812084377601
50,2.472,0.0490464974736087
51,2.479,0.0433823560633112
52,2.487,0.0393325350125256
53,2.494,0.0620011179268634
54,2.502,0.0506047372250979
55,2.509,0.0456135631110733
56,2.517,0.0485417720014039
57,2.524,0.0434224136404703
58,2.532,0.0535409576308603
59,2.539,0.0557681589209066
60,2.547,0.0592010932834419
61,2.554,0.0490585147467564
62,2.562,0.0541538385613946
63,2.569,0.0561607231770658
64,2.577,0.0482213113841311
65,2.585,0.0566293968298273
66,2.592,0.0580995099115665
67,2.600,0.0451609124891754
68,2.607,0.0524033224395417
69,2.615,0.060987661224738
70,2.622,0.0364323664262064
71,2.630,0.0466270198131987
72,2.637,0.0525555412327463
73,2.645,0.0455414594721869
74,2.652,0.0530722839780988
75,2.660,0.0635072828280457
76,2.667,0.0377222204107296
77,2.675,0.0316054283785342
78,2.683,0.039673024418378
79,2.690,0.0378624219307864
80,2.698,0.0501320578146204
81,2.705,0.0500439311448704
82,2.713,0.0495952862806884
83,2.720,0.0563449880319977
84,2.728,0.055523807700236
85,2.735,0.0587965117541349
86,2.743,0.0551112146554972
87,2.750,0.0472198719551535
88,2.758,0.0550431167743267
89,2.765,0.0646449180193643
90,2.773,0.0839366471791895
91,2.780,0.0587204023575326
92,2.788,0.0562728843931113
93,2.796,0.0420564502593448
94,2.803,0.0586362814454985
95,2.811,0.0644766761952961
96,2.818,0.0549549901045767
97,2.826,0.0444879451929025
98,2.833,0.0662832729251717
99,2.841,0.0447603367175844
100,2.848,0.0493549408177338
101,2.856,0.0444278588271638
102,2.863,0.0436347187994135
103,2.871,0.0387517001437186
104,2.878,0.0479208795554378
105,2.886,0.0681539617785019
106,2.894,0.0640240255733982
107,2.901,0.0480250292560515
108,2.909,0.0472158661974375
109,2.916,0.05400161976819
110,2.924,0.0612440297185563
111,2.931,0.046615002540051
112,2.939,0.0495392056726657
113,2.946,0.0613161333574426
114,2.954,0.183267421260623
115,2.961,5.59627185731683
116,2.969,34.9749756309729
117,2.976,87.1254145859092
118,2.984,100
119,2.991,2.2852447193498
120,2.999,0.11105963267362
121,3.007,0.0842290674924509
122,3.014,0.0849621211544626
123,3.022,0.0659387777616034
124,3.029,0.0579913544532369
125,3.037,0.0822782634848025
126,3.044,0.0858554051251106
127,3.052,0.0719233797891738
128,3.059,0.053869429763565
129,3.067,0.0744069495730383
130,3.074,0.0601784981661241
131,3.082,0.0501560923609159
132,3.089,0.0487660944334949
133,3.097,0.0397972029075712
134,3.105,0.0390961953072869
135,3.112,0.0429457284722769
136,3.120,0.0570620186631457
137,3.127,0.0798948376438357
138,3.135,0.0806198797904155
139,3.142,0.047376096506074
140,3.150,0.034794011520399
141,3.157,0.0453692118904028
142,3.165,0.0643524977061028
143,3.172,0.043522557583368
144,3.180,0.0473640792329262
145,3.187,0.0445760718626525
146,3.195,0.0323384820405458
147,3.202,0.0437829318349022
148,3.210,0.048806152010654
149,3.218,0.0482413401727106
150,3.225,0.0398492777578781
151,3.233,0.0333719675312507
152,3.240,0.0317055723214319
153,3.248,0.0316695205019887
154,3.255,0.0448364461141867
155,3.263,0.066183128982274
156,3.270,0.0415597363025719
157,3.278,0.0323344762828299
158,3.285,0.0386795965048322
159,3.293,0.0324266087102958
160,3.300,0.0258651775716344
161,3.308,0.0449646303610958
162,3.315,0.0541858846231219
163,3.323,0.0313049965498409
164,3.331,0.0291819449604083
165,3.338,0.0289936743477605
166,3.346,0.0204774334437347
167,3.353,0.0254285499806001
168,3.361,0.0214267980224055
169,3.368,0.0233816077877698
170,3.376,0.0226285253371786
171,3.383,0.0313210195807045
172,3.391,0.0276797858169418
173,3.398,0.0297026934634767
174,3.406,0.0150376144655282
175,3.413,0.0315052844356364
176,3.421,0.0287212828230786
177,3.429,0.0232934811180198
178,3.436,0.0202250707076323
179,3.444,0.0234336826380767
180,3.451,0.027002812762953
181,3.459,0.0312649389726818
182,3.466,0.00747474389788907
183,3.474,0.0280403040113738
184,3.481,0.0286772194882036
185,3.489,0.0928654811279541
186,3.496,0.0686586872507067
187,3.504,0.0278920909758851
188,3.511,0.0116046801029928
189,3.519,0.0161271805642558
190,3.526,0.0184865718589271
191,3.534,0.0316374744402615
192,3.542,0.0379144967810933
193,3.549,0.0324105856794322
194,3.557,0.0144367508081416
195,3.564,0.0118049679887884
196,3.572,0.0276597570283623
197,3.579,0.0235218093078267
198,3.587,0.012806407417766
199,3.594,0.0135715071415049
200,3.602,0.0257329875670093
201,3.609,0.0203812952585528
202,3.617,0.0257890681750321
203,3.624,0.0210983258897008
204,3.632,0.0114324325212087
205,3.640,0.023017083835622
206,3.647,0.0192316427940865
207,3.655,0.026998807005237
208,3.662,0.0102266994487196
209,3.670,0.00860837333149175
210,3.677,0.0160791114716649
211,3.685,0.0159709560133353
212,3.692,0.0096138185181853
213,3.700,0.0129906722726979
214,3.707,0.0235298208232585
215,3.715,0.0126782231708569
216,3.722,0.0702730076102186
217,3.730,0.37167422967076
218,3.737,0.245877414360305
219,3.745,0.117885443821531
220,3.753,0.0919842144304538
221,3.760,0.0996272001524111
222,3.768,0.0774433139216985
223,3.775,0.076706254501971
224,3.783,0.0537853088515308
225,3.790,0.0581435732464415
226,3.798,0.0501761211494954
227,3.805,0.0518465221170301
228,3.813,0.039316511981662
229,3.820,0.0496633841618589
230,3.828,0.0431179760540611
231,3.835,0.0367888788629224
232,3.843,0.0385393949847753
233,3.851,0.0365445276422519
234,3.858,0.0349942994061945
235,3.866,0.0404901989924237
236,3.873,0.029462348000522
237,3.881,0.0329233226670687
238,3.888,0.0297948258909426
239,3.896,0.0458699316048916
240,3.903,0.035599168821297
241,3.911,0.0363202052101609
242,3.918,0.030271511059136
243,3.926,0.0173249021213131
244,3.933,0.0370492531144566
245,3.941,0.0375179267672181
246,3.948,0.0406384120279124
247,3.956,0.0204934564745983
248,3.964,0.0481852595646879
249,3.971,0.0916196904783059
250,3.979,0.0537412455166558
251,3.986,0.0184985891320749
252,3.994,0.0254525845268956
253,4.001,0.0264820642598846
254,4.009,0.0229930492893265
255,4.016,0.0268946573046234
256,4.024,0.0335522266284667
257,4.031,0.0274714864157145
258,4.039,0.0217272298510988
259,4.046,0.0229770262584629
260,4.054,0.0165077275472673
261,4.061,0.0130267240921411
262,4.069,0.0272872215607826
263,4.077,0.0298909640761245
264,4.084,0.032506723864614
265,4.092,0.0150736662849714
266,4.099,0.0267184039651233
267,4.107,0.024671461772293
268,4.114,0.0259172524219412
269,4.122,0.0284008222058057
270,4.129,0.0224963353325536
271,4.137,0.0253644578571455
272,4.144,0.0314612211007614
273,4.152,0.0289415994974537
274,4.159,0.025344429068566
275,4.167,0.0292139910221356
276,4.175,0.0200087597909732
277,4.182,0.0205174910208938
278,4.190,0.0269587494280779
279,4.197,0.0246073696488385
280,4.205,0.0223641453279286
281,4.212,0.0215549822693146
282,4.220,0.0213827346875305
283,4.227,0.0239704541720087
284,4.235,0.0176253339500064
285,4.242,0.0186107503481204
286,4.250,0.0205134852631779
287,4.257,0.0208459631535985
288,4.265,0.0116487434378679
289,4.272,0.015494270845142
290,4.280,0.0278840794604533
291,4.288,0.0158788235858694
292,4.295,0.0229449801967356
293,4.303,0.0138118526044595
294,4.310,0.00785929663861648
295,4.318,0.0239344023525655
296,4.325,0.0147091423328235
297,4.333,0.0149294590071986
298,4.340,0.0241266787229292
299,4.348,0.0187389345950295
300,4.355,0.0162032899608581
301,4.363,0.0145929753590621
302,4.370,0.0107634709826516
303,4.378,0.0249718936009863
304,4.386,0.0226846059452014
305,4.393,0.0217512643973942
306,4.401,0.0184625373126317
307,4.408,0.0220717250146671
308,4.416,0.10756260618763
309,4.423,0.133467841336423
310,4.431,0.0399253871544804
311,4.438,0.0197884431165981
312,4.446,0.0217031953048033
313,4.453,0.0284609085715444
314,4.461,0.0136476165381072
315,4.468,0.0227446923109401
316,4.476,0.0193157637061206
317,4.483,0.015494270845142
318,4.491,0.01495749931121
319,4.499,0.04146359811739
320,4.506,0.0245072257059407
321,4.514,0.0266703348725324
322,4.521,0.0185346409515181
323,4.529,0.0314451980698977
324,4.536,0.0289936743477605
325,4.544,0.0235859014312813
326,4.551,0.0270188357938166
327,4.559,0.0221037710763944
328,4.566,0.029866929529829
329,4.574,0.0233255271797471
330,4.581,0.00978606609996945
331,4.589,0.0125660619548114
332,4.597,0.0249758993587022
333,4.604,0.0212986137754963
334,4.612,0.0204013240471324
335,4.619,0.0173649596984722
336,4.627,0.0262337072814981
337,4.634,0.0173329136367449
338,4.642,0.01621130147629
339,4.649,0.0154662305411306
340,4.657,0.0155022823605738
341,4.664,0.0181020191181997
342,4.672,0.021715212577951
343,4.679,0.0172247581784153
344,4.687,0.00997433671261725
345,4.694,0.00985416398113993
346,4.702,0.0278480276410101
347,4.710,0.00872454030525316
348,4.717,0.0100344230783559
349,4.725,0.013030729849857
350,4.732,0.0192036024900751
351,4.740,0.0207938883032916
352,4.747,0.0190193376351432
353,4.755,0.0158547890395739
354,4.762,0.0280523212845215
355,4.770,0.0205575485980529
356,4.777,0.0204053298048483
357,4.785,0.0236019244621449
358,4.792,0.0182422206382566
359,4.800,0.0170204645349039
360,4.807,0.0169804069577448
361,4.815,0.0154381902371192
362,4.823,0.0212825907446327
363,4.830,0.0174731151568018
364,4.838,0.0315413362550796
365,4.845,0.0300672174156245
366,4.853,0.023105210505372
367,4.860,0
368,4.868,0.0116727779841633
369,4.875,0.0197764258434503
370,4.883,0.0154782478142783
371,4.890,0.0334000078352621
372,4.898,0.211311731029713
373,4.905,0.396221512953859
374,4.913,0.139901088228176
375,4.921,0.058748442661544
376,4.928,0.0476965571233468
377,4.936,0.0379385313273887
378,4.943,0.032823178724171
379,4.951,0.0286331561533285
380,4.958,0.0338326296685804
381,4.966,0.0367488212857633
382,4.973,0.024939847539259
383,4.981,0.0435505978873794
384,4.988,0.0222599956273149
385,4.996,0.0343774127179443
386,5.003,0.0276757800592259
387,5.011,0.0319579350575343
388,5.018,0.0230291011087697
389,5.026,0.0209421013387803
390,5.034,0.0304597816717838
391,5.041,0.0226806001874855
392,5.049,0.0214508325687009
393,5.056,0.0273953770191122
394,5.064,0.014777240213994
395,5.071,0.0162633763265968
396,5.079,0.0131388853081866
397,5.086,0.0224402547245308
398,5.094,0.0267344269959869
399,5.101,0.0206817270872461
400,5.109,0.0231372565670993
401,5.116,0.0258010854481798
402,5.124,0.0129826607572661
403,5.132,0.0130227183344252
404,5.139,0.0251761872444977
405,5.147,0.0198925928172117
406,5.154,0.0205295082940415
407,5.162,0.0170525105966312
408,5.169,0.0166679578559038
409,5.177,0.0162633763265968
410,5.184,0.0300311655961813
411,5.192,0.0199847252446777
412,5.199,0.0163154511769036
413,5.207,0.0209861646736553
414,5.214,0.0186908655024386
415,5.222,0.0192036024900751
416,5.229,0.0185146121629385
417,5.237,0.0282405918971693
418,5.245,0.0120292904208794
419,5.252,0.0404581529306965
420,5.260,0.0174410690950745
421,5.267,0.00689791478679795
422,5.275,0.0189712685425523
423,5.282,0.0125340158930841
424,5.290,0.0264940815330323
425,5.297,0.00661751174668421
426,5.305,0.0250760433016
427,5.312,0.0321822574896253
428,5.320,0.019836512209189
429,5.327,0.0246314041951339
430,5.335,0.0150736662849714
431,5.343,0.025700941505282
432,5.350,0.0193558212832797
433,5.358,0.0208699976998939
434,5.365,0.0217472586396783
435,5.373,0.0232253832368493
436,5.380,0.0221878919884285
437,5.388,0.00624497627910453
438,5.395,0.00400175195819463
439,5.403,0.0162793993574604
440,5.410,0.016255364811165
441,5.418,0.0248276863232135
442,5.425,0.0219195062214625
443,5.433,0.0203212088928142
444,5.440,0.0175572360688359
445,5.448,0.012718280748016
446,5.456,0.017196717874404
447,5.463,0.0265461563833392
448,5.471,0.0384472625573094
449,5.478,0.0397491338149803
450,5.486,0.0371694258459339
451,5.493,0.0315173017087841
452,5.501,0.0226485541257582
453,5.508,0.0248677439003726
454,5.516,0.0229569974698833
455,5.523,0.0147051365751076
456,5.531,0.0189071764190978
457,5.538,0.0256208263509638
458,5.546,0.0182862839731316
459,5.554,0.0334240423815576
460,5.561,0.0337885663337054
461,5.569,0.0277919470329873
462,5.576,0.0294343076965107
463,5.584,0.0234136538494971
464,5.591,0.0239023562908382
465,5.599,0.0229930492893265
466,5.606,0.0240826153880542
467,5.614,0.0584640338637143
468,5.621,0.187237127157091
469,5.629,0.209104558528246
470,5.636,0.1311204673149
471,5.644,0.0947842390738752
472,5.651,0.0711582800654348
473,5.659,0.0679576796504223
474,5.667,0.0498676778053703
475,5.674,0.0404221011112533
476,5.682,0.0402178074677418
477,5.689,0.0445119797391979
478,5.697,0.0429697630185724
479,5.704,0.0472118604397216
480,5.712,0.0416638860031855
481,5.719,0.0415957881220151
482,5.727,0.0510854281510071
483,5.734,0.0460021216095167
484,5.742,0.0439511736589705
485,5.749,0.0340128887657964
486,5.757,0.0236459877970199
487,5.764,0.0401296807979918
488,5.772,0.0333118811655121
489,5.780,0.0330755414602733
490,5.787,0.0226926174606332
491,5.795,0.0254085211920206
492,5.802,0.021002187704519
493,5.810,0.0326829772041141
494,5.817,0.0249638820855545
495,5.825,0.0213226483217918
496,5.832,0.0227527038263719
497,5.840,0.0259132466642253
498,5.847,0.0239944887183041
499,5.855,0.0258010854481798
500,5.862,0.0201449555533141
501,5.870,0.0312609332149659
502,5.878,0.0299470446841472
503,5.885,0.0193037464329729
504,5.893,0.0148253093065849
505,5.900,0.0322703841593753
506,5.908,0.0193077521906888
507,5.915,0.0213947519606782
508,5.923,0.0143566356538234
509,5.930,0.0160710999562331
510,5.938,0.0234737402152358
511,5.945,0.023730108709054
512,5.953,0.0212625619560531
513,5.960,0.0235578611272699
514,5.968,0.017821616078086
515,5.975,0.024983910874134
516,5.983,0.0171085912046539
517,5.991,0.021090314374269
518,5.998,0.0335281920821712
519,6.006,0.0353588233583423
520,6.013,0.0112641906971404
521,6.021,0.0324947065914663
522,6.028,0.049254796874836
523,6.036,0.0341170384664101
524,6.043,0.0397451280572644
525,6.051,0.0482092941109834
526,6.058,0.0328432075127505
527,6.066,0.0233455559683266
528,6.073,0.0136636395689709
529,6.081,0.0285009661487035
530,6.089,0.0112241331199813
531,6.096,0.0278640506718737
532,6.104,0.033404013592978
533,6.111,0.0330354838831142
534,6.119,0.0211504007400077
535,6.126,0.0517583954472801
536,6.134,0.0656143113866147
537,6.141,0.0499798390214158
538,6.149,0.0347098906083648
539,6.156,0.0411751835618445
540,6.164,0.0362761418752859
541,6.171,0.0324065799217163
542,6.179,0.0331516508568756
543,6.186,0.0289496110128855
544,6.194,0.0358996006499903
545,6.202,0.0365004643073768
546,6.209,0.0379345255696728
547,6.217,0.029374221330772
548,6.224,0.0309204438091135
549,6.232,0.0278800737027374
550,6.239,0.0336363475405008
551,6.247,0.0415036556945491
552,6.254,0.0303235859094428
553,6.262,0.0171125969623698
554,6.269,0.00886073606759412
555,6.277,0.0344535221145466
556,6.284,0.0369571206869906
557,6.292,0.0213106310486441
558,6.300,0.0313570714001477
559,6.307,0.0244351220670543
560,6.315,0.0194078961335866
561,6.322,0.028969639801465
562,6.330,0.0216831665162238
563,6.337,0.0203853010162687
564,6.345,0.0325868390189323
565,6.352,0.0291298701101015
566,6.360,0.0264380009250096
567,6.367,0.0279081140067487
568,6.375,0.01764135698087
569,6.382,0.020016771306405
570,6.390,0.0143646471692552
571,6.397,0.0264540239558732
572,6.405,0.019568126442223
573,6.413,0.0169403493805857
574,6.420,0.0327390578121369
575,6.428,0.0200568288835641
576,6.435,0.0212425331674736
577,6.443,0.0197083279622799
578,6.450,0.0286411676687604
579,6.458,0.0221798804729967
580,6.465,0.0342332054401715
581,6.473,0.02373411446677
582,6.480,0.012089376786618
583,6.488,0.028525000694999
584,6.495,0.0174851324299495
585,6.503,0.0229209456504401
586,6.510,0.0287092655499308
587,6.518,0.0182101745765293
588,6.526,0.0324826893183186
589,6.533,0.0356953070064788
590,6.541,0.0153460578096533
591,6.548,0.0306680810730111
592,6.556,0.0358114739802402
593,6.563,0.0281925228045784
594,6.571,0.0181540939685066
595,6.578,0.0302514822705564
596,6.586,0.0210702855856894
597,6.593,0.0255527284697933
598,6.601,0.0316454859556933
599,6.608,0.0351745585034105
600,6.616,0.0209380955810644
601,6.624,0.0250640260284523
602,6.631,0.0269066745777711
603,6.639,0.0192717003712456
604,6.646,0.0163114454191877
605,6.654,0.026642294568521
606,6.661,0.0226685829143378
607,6.669,0.0228929053464287
608,6.676,0.0302314534819769
609,6.684,0.024314949335577
610,6.691,0.0359436639848653
611,6.699,0.0246594444991453
612,6.706,0.0145208717201757
613,6.714,0.0211984698325986
614,6.721,0.0254365614960319
615,6.729,0.0213987577183941
616,6.737,0.0255326996812138
617,6.744,0.0210863086165531
618,6.752,0.0165357678512787
619,6.759,0.0277118318786691
620,6.767,0.0157065760040852
621,6.774,0.0253284060377023
622,6.782,0.0230691586859288
623,6.789,0.0140882498868574
624,6.797,0.0271990948910326
625,6.804,0.0275956649049077
626,6.812,0.0262297015237822
627,6.819,0.0212745792292009
628,6.827,0.014596981116778
629,6.835,0.00769105481454824
630,6.842,0.0219435407677579
631,6.850,0.023105210505372
632,6.857,0.0365445276422519
633,6.865,0.0163555087540627
634,6.872,0.0284969603909876
635,6.880,0.0352907254771719
636,6.887,0.0252362736102364
637,6.895,0.0331676738877393
638,6.902,0.0209821589159394
639,6.910,0.0281043961348284
640,6.917,0.0306520580421475
641,6.925,0.0309725186594203
642,6.932,0.0217031953048033
643,6.940,0.0338726872457395
644,6.948,0.0335882784479099
645,6.955,0.0259533042413844
646,6.963,0.0263178281935323
647,6.970,0.0372936043351271
648,6.978,0.0358154797379561
649,6.985,0.0267103924496915
650,6.993,0.0249558705701227
651,7.000,0.0249638820855545
652,7.008,0.032462660529739
653,7.015,0.0551072088977813
654,7.023,0.0974080103777966
655,7.030,0.162565665384797
656,7.038,0.127411135669967
657,7.046,0.09045000922526
658,7.053,0.0567415580458728
659,7.061,0.0328712478167619
660,7.068,0.0357954509493766
661,7.076,0.0306760925884429
662,7.083,0.0311888295760795
663,7.091,0.0447042561095616
664,7.098,0.0471437625585512
665,7.106,0.0385153604384798
666,7.113,0.0438149778966295
667,7.121,0.038551412257923
668,7.128,0.0253564463417137
669,7.136,0.045673649476812
670,7.143,0.0493789753640292
671,7.151,0.0653018622847736
672,7.159,0.0676732708525927
673,7.166,0.100151954413195
674,7.174,0.0947521930121479
675,7.181,0.0685345087615134
676,7.189,0.0486178813980062
677,7.196,0.0608354424315334
678,7.204,0.059641726632192
679,7.211,0.0452810852206528
680,7.219,0.0797626476392107
681,7.226,0.153400491730794
682,7.234,0.203436411360233
683,7.241,0.171470464787267
684,7.249,0.124034281915454
685,7.257,0.0784167130466647
686,7.264,0.0673327814467403
687,7.272,0.0630065631135569
688,7.279,0.0571060819980207
689,7.287,0.0568256789579069
690,7.294,0.0528038982111328
691,7.302,0.0454172809829937
692,7.309,0.0443637667037092
693,7.317,0.0493269005137224
694,7.324,0.0482293228995629
695,7.332,0.0520708445491211
