#"+EI TIC Scan EA-PEEK.d "
#Point,X(Minutes),Y(Counts)
0,2.095,0.174014284719631
1,2.102,0.168870702086157
2,2.110,0.13006155956112
3,2.117,0.145262833154716
4,2.125,0.132899205257715
5,2.132,0.128891800289742
6,2.140,0.119528129184408
7,2.147,0.116774437502505
8,2.155,0.0980247075545852
9,2.163,0.112100997351307
10,2.170,0.10169629646379
11,2.178,0.0990377526652041
12,2.185,0.0892543114864092
13,2.193,0.077483958626566
14,2.200,0.0938829761631045
15,2.208,0.10161793938341
16,2.215,0.0838420760059202
17,2.223,0.108899550924378
18,2.230,0.0830585052021266
19,2.238,0.0750101136603032
20,2.245,0.0810380119152015
21,2.253,0.0692900467926096
22,2.260,0.0606092016734386
23,2.268,0.0593554883873687
24,2.276,0.0802936196515976
25,2.283,0.0753627205220104
26,2.291,0.0851797433066822
27,2.298,0.0734317781840903
28,2.306,0.0743272876741402
29,2.313,0.0626296949603636
30,2.321,0.0676389511703302
31,2.328,0.0673647013890024
32,2.336,0.0699057095670189
33,2.343,0.0697601892748858
34,2.351,0.0550794305723806
35,2.358,0.0653274172991389
36,2.366,0.0546540635646069
37,2.374,0.0572118625455618
38,2.381,0.0612976245939144
39,2.389,0.0454191219484675
40,2.396,0.218996845791699
41,2.404,0.421359602805721
42,2.411,0.160771938135518
43,2.419,0.0640737040130691
44,2.426,0.0633349086837779
45,2.434,0.0532436361177783
46,2.441,0.0504787505672493
47,2.449,0.049980623413409
48,2.456,0.0570551483848031
49,2.464,0.0547212267763606
50,2.471,0.0517548515905704
51,2.479,0.0468687279354857
52,2.487,0.0473388704177619
53,2.494,0.0613759816742938
54,2.502,0.0557006902811027
55,2.509,0.0524432745110462
56,2.517,0.0553145018135187
57,2.524,0.0538313142206235
58,2.532,0.0516093312984373
59,2.539,0.0471429777168135
60,2.547,0.0507194187427002
61,2.554,0.0655345038687129
62,2.562,0.036424848507779
63,2.569,0.0397662182925276
64,2.577,0.0391057800436158
65,2.585,0.0437736232605008
66,2.592,0.0382774337653196
67,2.600,0.0365199963910968
68,2.607,0.0542119057538947
69,2.615,0.0505906892535055
70,2.622,0.055275323273329
71,2.630,0.0532156514462142
72,2.637,0.0498854755300912
73,2.645,0.0331394480661584
74,2.652,0.0381375104074994
75,2.660,0.0444844339182279
76,2.667,0.0519899228317085
77,2.675,0.0520123105689597
78,2.682,0.0393744328906308
79,2.690,0.0452624077877087
80,2.698,0.0433874347929168
81,2.705,0.0471373807825007
82,2.713,0.049029144580231
83,2.720,0.0593219067814919
84,2.728,0.0647733208021705
85,2.735,0.0614487418203603
86,2.743,0.056523439625086
87,2.750,0.0654057743795183
88,2.758,0.0490347415145439
89,2.765,0.0554936037115286
90,2.773,0.0807637621338737
91,2.780,0.0420665582950932
92,2.788,0.0431411696831531
93,2.796,0.0579842394807299
94,2.803,0.0473164826805106
95,2.811,0.0569208219612956
96,2.818,0.0407792634031465
97,2.826,0.0554544251713389
98,2.833,0.0430460217998353
99,2.841,0.0394807746425742
100,2.848,0.0325461730290004
101,2.856,0.0595066056138147
102,2.863,0.0352438953677757
103,2.871,0.0550906244410062
104,2.878,0.0457157594670465
105,2.886,0.0492306342154923
106,2.893,0.0498015215153991
107,2.901,0.0343595797463514
108,2.909,0.0673031351115615
109,2.916,0.0632005822602704
110,2.924,0.0585943053208263
111,2.931,0.0651930908756314
112,2.939,0.0484470634116986
113,2.946,0.0546540635646069
114,2.954,0.343819674836027
115,2.961,8.77809744979046
116,2.969,47.4711763479824
117,2.976,100
118,2.984,90.8639730039709
119,2.991,1.3113617094918
120,2.999,0.120888184222421
121,3.006,0.0977448608389446
122,3.014,0.0887729751355074
123,3.022,0.0692284805151687
124,3.029,0.0706501018306229
125,3.037,0.0909221979116271
126,3.044,0.0740978133673149
127,3.052,0.0723459729274048
128,3.059,0.0681818537986729
129,3.067,0.063066255836763
130,3.074,0.0635643829906032
131,3.082,0.053014161810953
132,3.089,0.0711370351158375
133,3.097,0.0543798137832791
134,3.104,0.0411878396079818
135,3.112,0.0519171626856419
136,3.120,0.064431907809089
137,3.127,0.100274675148336
138,3.135,0.0689430368652153
139,3.142,0.0335368304023681
140,3.150,0.0395311470513895
141,3.157,0.0672807473743102
142,3.165,0.078021264320596
143,3.172,0.0497231644350197
144,3.180,0.0608330790459511
145,3.187,0.0465497026796554
146,3.195,0.0370628990194395
147,3.202,0.0565122457564604
148,3.210,0.0398221876356557
149,3.217,0.0468855187384241
150,3.225,0.0291152522952468
151,3.233,0.0378128882173563
152,3.240,0.0381934797506275
153,3.248,0.0541111609362641
154,3.255,0.0802544411114079
155,3.263,0.0624338022594152
156,3.270,0.0531540851687733
157,3.278,0.0403259117238088
158,3.285,0.0282813090826378
159,3.293,0.036542384128348
160,3.300,0.0418146962510167
161,3.308,0.0380647502614328
162,3.315,0.0545924972871659
163,3.323,0.0443780921662845
164,3.331,0.0367718584351733
165,3.338,0.027799972731736
166,3.346,0.0341524931767774
167,3.353,0.0384397448603912
168,3.361,0.029109655360934
169,3.368,0.0471765593226904
170,3.376,0.044629954210361
171,3.383,0.0395423409200151
172,3.391,0.0493145882301844
173,3.398,0.0290648798864315
174,3.406,0.0260145506859491
175,3.413,0.0296861395951536
176,3.421,0.0273802026582751
177,3.428,0.0114009551951976
178,3.436,0.0272514731690805
179,3.444,0.0339118250013265
180,3.451,0.0426878180038153
181,3.459,0.0213355136004384
182,3.466,0.0273578149210239
183,3.474,0.0271843099573267
184,3.481,0.049208246478241
185,3.489,0.11135100815339
186,3.496,0.0655233100000873
187,3.504,0.0167236397266815
188,3.511,0.0123636278970012
189,3.519,0.014955008483833
190,3.526,0.0167796090698097
191,3.534,0.0129121274596567
192,3.542,0.0193038264448878
193,3.549,0.0276768401768542
194,3.557,0.0183075721372073
195,3.564,0.0383110153711965
196,3.572,0.00722564219783999
197,3.579,0.0249231484949508
198,3.587,0.0192646479046981
199,3.594,0.0191079337439394
200,3.602,0.0229642214854667
201,3.609,0.0126042960724521
202,3.617,0.0221302782728577
203,3.624,0.0161471554924619
204,3.632,0.0258578365251903
205,3.639,0.0297588997412201
206,3.647,0.0149214268779562
207,3.655,0.0213802890749409
208,3.662,0.0138188308183322
209,3.670,0.0306879908371469
210,3.677,0.0167180427923687
211,3.685,0.0159736505287648
212,3.692,0.0228970582737129
213,3.700,0.016264691113031
214,3.707,0.0168355784129378
215,3.715,0.013410254613497
216,3.722,0.0281693703963816
217,3.730,0.0179045928666848
218,3.737,0.0108076801580395
219,3.745,0.0218616254258427
220,3.752,0.0231489203177895
221,3.760,0.0139811419134038
222,3.768,0.00803160073888488
223,3.775,0.0230761601717229
224,3.783,0.00474060336295156
225,3.790,0.0102759713983224
226,3.798,0.00660438248911788
227,3.805,0.0179325775382489
228,3.813,0.0233336191501122
229,3.820,0.00749989197916776
230,3.828,0.0142777794319828
231,3.835,0.0176639246912339
232,3.843,0.00603909212352389
233,3.850,0.0157553700905651
234,3.858,0.0234175731648044
235,3.866,0.0106621598659064
236,3.873,0.0171546036687681
237,3.881,0.0224940790031905
238,3.888,0.0135669687742557
239,3.896,0.0105726089169014
240,3.903,0.0201097849859327
241,3.911,0.00939725271121095
242,3.918,0.00311749241223615
243,3.926,0.0196060608977796
244,3.933,0.0361450017921384
245,3.941,0.0212179779798694
246,3.948,0.0264846931682253
247,3.956,0.0134326423507482
248,3.963,0.0601950285342905
249,3.971,0.0953437760187484
250,3.979,0.0470310390305572
251,3.986,0.0276488555052901
252,3.994,0.0188001023567347
253,4.001,0.0218672223601556
254,4.009,0.0233224252814866
255,4.016,0.015878502645447
256,4.024,0.0247608373998792
257,4.031,0.0254100817801654
258,4.039,0.0281525795934432
259,4.046,0.0195612854232771
260,4.054,0.0262888004672769
261,4.061,0.0209605190014801
262,4.069,0.0255667959409241
263,4.077,0.0386692191672165
264,4.084,0.026551856379979
265,4.092,0.0176359400196699
266,4.099,0.0213131258631872
267,4.107,0.0114345368010744
268,4.114,0.0265854379858559
269,4.122,0.0331394480661584
270,4.129,0.0408912020894027
271,4.137,0.0331506419347841
272,4.144,0.0270947590083217
273,4.152,0.0198299382702921
274,4.159,0.0425590885146206
275,4.167,0.0356468746382981
276,4.174,0.0338782433954496
277,4.182,0.0203560500956964
278,4.190,0.0226731809012005
279,4.197,0.0354957574118522
280,4.205,0.0122908677509346
281,4.212,0.0329939277740253
282,4.220,0.0300387464568607
283,4.227,0.0388595149338521
284,4.235,0.0366879044204811
285,4.242,0.0405945645708237
286,4.250,0.0447922653054325
287,4.257,0.0330554940514663
288,4.265,0.0132927189929279
289,4.272,0.0319193163859655
290,4.280,0.0287682423678525
291,4.288,0.0187441330136066
292,4.295,0.0216545388562687
293,4.303,0.0234343639677429
294,4.310,0.0227403441129542
295,4.318,0.0307831387204647
296,4.325,0.0230257877629076
297,4.333,0.0263111882045281
298,4.340,0.0252701584223451
299,4.348,0.0272234884975164
300,4.355,0.0213914829435666
301,4.363,0.0315667095242583
302,4.370,0.0136061473144454
303,4.378,0.0325349791603748
304,4.385,0.029109655360934
305,4.393,0.0163934206022257
306,4.401,0.0287738393021653
307,4.408,0.0495328686683841
308,4.416,0.1674043052962
309,4.423,0.152203031702603
310,4.431,0.0242795010489774
311,4.438,0.037852066757546
312,4.446,0.0158840995797598
313,4.453,0.0331506419347841
314,4.461,0.024441812144049
315,4.468,0.0232160835295432
316,4.476,0.0230985479089741
317,4.483,0.0335536212053065
318,4.491,0.0144009119868647
319,4.499,0.0186601789989144
320,4.506,0.0138468154898963
321,4.514,0.0275760953592236
322,4.521,0.0167236397266815
323,4.529,0.0260369384232003
324,4.536,0.0308167203263416
325,4.544,0.0227795226531439
326,4.551,0.017871011260808
327,4.559,0.0374322966840851
328,4.566,0.012755413298898
329,4.574,0
330,4.581,0.0190967398753137
331,4.589,0.0181004855676332
332,4.596,0.0136061473144454
333,4.604,0.00823868730845891
334,4.612,0.020249708343753
335,4.619,0.0126938470214571
336,4.627,0.0269884172563783
337,4.634,0.0320760305467242
338,4.642,0.0258466426565647
339,4.649,0.0181060825019461
340,4.657,0.0240500267421521
341,4.664,0.0211676055710541
342,4.672,0.0151676919877199
343,4.679,0.0230369816315332
344,4.687,0.0250910565243351
345,4.694,0.03594910909119
346,4.702,0.0251806074733401
347,4.709,0.0266526011976096
348,4.717,0.0161975279012772
349,4.725,0.0336991414974396
350,4.732,0.0511951581592892
351,4.740,0.0660438248911788
352,4.747,0.0368837971214295
353,4.755,0.0352159106962116
354,4.762,0.0285387680610272
355,4.770,0.0461355295405074
356,4.777,0.0363800730332765
357,4.785,0.0283260845571403
358,4.792,0.0346842019364945
359,4.800,0.0329603461681485
360,4.807,0.0249399392978892
361,4.815,0.0359826906970668
362,4.823,0.0196284486350309
363,4.830,0.021794462214089
364,4.838,0.0266190195917327
365,4.845,0.0231209356462254
366,4.853,0.0214642430896331
367,4.860,0.0268988663073733
368,4.868,0.0281078041189407
369,4.875,0.023132129514851
370,4.883,0.0292439817844415
371,4.890,0.023490333310871
372,4.898,0.0113393889177566
373,4.905,0.0131192140292308
374,4.913,0.0128169795763389
375,4.920,0.0314155922978124
376,4.928,0.0227179563757029
377,4.936,0.0241675623627212
378,4.943,0.0374714752242748
379,4.951,0.025303740028222
380,4.958,0.0179213836696233
381,4.966,0.0140427081908447
382,4.973,0.0255276174007345
383,4.981,0.0240164451362753
384,4.988,0.0216825235278328
385,4.996,0.0195444946203387
386,5.003,0.0216657327248943
387,5.011,0.0454471066200315
388,5.018,0.0348633038345045
389,5.026,0.027324233315147
390,5.034,0.0543854107175919
391,5.041,0.0642360151081406
392,5.049,0.0988530538328814
393,5.056,0.175822094502669
394,5.064,0.197084847957041
395,5.071,0.102642178362655
396,5.079,0.0587062440070826
397,5.086,0.060329354957798
398,5.094,0.0476970742137818
399,5.101,0.0538704927608132
400,5.109,0.0312420873341153
401,5.116,0.0327140810583848
402,5.124,0.0318353623712733
403,5.131,0.0228466858648976
404,5.139,0.037493862961526
405,5.147,0.0376897556624744
406,5.154,0.0299212108362917
407,5.162,0.0292999511275696
408,5.169,0.0332681775553531
409,5.177,0.0330163155112766
410,5.184,0.0417195483676989
411,5.192,0.0337663047091934
412,5.199,0.0271787130230139
413,5.207,0.033570412008245
414,5.214,0.0314547708380021
415,5.222,0.0346338295276792
416,5.229,0.0221918445502986
417,5.237,0.0274081873298392
418,5.245,0.0372308070488238
419,5.252,0.0253429185684117
420,5.260,0.0165445378286716
421,5.267,0.0310461946331668
422,5.275,0.0201769481976864
423,5.282,0.0173393025010908
424,5.290,0.0200314279055533
425,5.297,0.0229810122884051
426,5.305,0.0290536860178059
427,5.312,0.0235071241138094
428,5.320,0.0277551972572335
429,5.327,0.0368054400410502
430,5.335,0.0173448994354037
431,5.342,0.0203784378329476
432,5.350,0.0355685175579188
433,5.358,0.0258298518536263
434,5.365,0.0410982886589768
435,5.373,0.0250686687870839
436,5.380,0.03330175916123
437,5.388,0.0413669415059917
438,5.395,0.0611353134988429
439,5.403,0.0599151818186499
440,5.410,0.0542230996225204
441,5.418,0.0414956709951864
442,5.425,0.0286563036815962
443,5.433,0.0322551324447342
444,5.440,0.0403091209208703
445,5.448,0.0146471770966284
446,5.455,0.0255611990066113
447,5.463,0.0227627318502054
448,5.471,0.0262608157957128
449,5.478,0.0353558340540319
450,5.486,0.0180613070274436
451,5.493,0.0259138058683185
452,5.501,0.0367998431067373
453,5.508,0.0328316166789538
454,5.516,0.0141042744682856
455,5.523,0.0468407432639216
456,5.531,0.0203112746211939
457,5.538,0.0269548356505015
458,5.546,0.0268037184240555
459,5.553,0.0257850763791238
460,5.561,0.0262943974015897
461,5.569,0.0157161915503754
462,5.576,0.0349584517178223
463,5.584,0.0235630934569375
464,5.591,0.0267085705407377
465,5.599,0.0400628558111066
466,5.606,0.0248727760861355
467,5.614,0.0305200828077625
468,5.621,0.00872002365936073
469,5.629,0.0297309150696561
470,5.636,0.0211899933083053
471,5.644,0.0214418553523819
472,5.651,0.0283876508345813
473,5.659,0.0318521531742117
474,5.666,0.042726996544005
475,5.674,0.0336767537601884
476,5.682,0.022001548783663
477,5.689,0.0313764137576227
478,5.697,0.0355293390177291
479,5.704,0.0285499619296528
480,5.712,0.020249708343753
481,5.719,0.0235295118510607
482,5.727,0.0530589372854555
483,5.734,0.0403371055924344
484,5.742,0.0384509387290168
485,5.749,0.0322103569702317
486,5.757,0.0310014191586644
487,5.764,0.038562877415273
488,5.772,0.027296248643583
489,5.780,0.0344267429581052
490,5.787,0.0288913749227343
491,5.795,0.0239548788588343
492,5.802,0.0170538588511374
493,5.810,0.0297365120039689
494,5.817,0.036839021646927
495,5.825,0.0207758201691573
496,5.832,0.0293839051422618
497,5.840,0.0282701152140122
498,5.847,0.0433482562527271
499,5.855,0.0255667959409241
500,5.862,0.0290424921491802
501,5.870,0.0274473658700289
502,5.877,0.0174848227932239
503,5.885,0.0269884172563783
504,5.893,0.0320704336124114
505,5.900,0.0269436417818758
506,5.908,0.0249623270351405
507,5.915,0.0271787130230139
508,5.923,0.0343763705492898
509,5.930,0.026165667912395
510,5.938,0.0346338295276792
511,5.945,0.0163094665875335
512,5.953,0.0260649230947644
513,5.960,0.0354453850030369
514,5.968,0.0321152090869139
515,5.975,0.0264063360878459
516,5.983,0.0255052296634832
517,5.991,0.0486373591783342
518,5.998,0.0227963134560823
519,6.006,0.0336151874827475
520,6.013,0.0311805210566743
521,6.021,0.0359826906970668
522,6.028,0.0223653495139958
523,6.036,0.019119127612565
524,6.043,0.0136061473144454
525,6.051,0.0346226356590536
526,6.058,0.0204679887819526
527,6.066,0.05708872999068
528,6.073,0.06130881846254
529,6.081,0.0525552131973025
530,6.088,0.0293783082079489
531,6.096,0.0491466802008001
532,6.104,0.0418986502657089
533,6.111,0.0547939869224272
534,6.119,0.0365535779969736
535,6.126,0.0295909917118358
536,6.134,0.0507977758230796
537,6.141,0.0381207196045609
538,6.149,0.0494209299821279
539,6.156,0.0570719391877415
540,6.164,0.0446635358162379
541,6.171,0.119041195899193
542,6.179,0.186086872032365
543,6.186,0.106185037782665
544,6.194,0.0592715343726766
545,6.202,0.0430572156684609
546,6.209,0.0440590669104542
547,6.217,0.0309678375527875
548,6.224,0.0393240604818154
549,6.232,0.0427661750841947
550,6.239,0.0495608533399482
551,6.247,0.0311861179909871
552,6.254,0.0387363823789702
553,6.262,0.0489395936312261
554,6.269,0.0454694943572828
555,6.277,0.0475571508559616
556,6.284,0.0404602381473162
557,6.292,0.0444676431152895
558,6.299,0.0352438953677757
559,6.307,0.035501354346165
560,6.315,0.0384565356633296
561,6.322,0.0361058232519487
562,6.330,0.0346282325933664
563,6.337,0.0369117817929936
564,6.345,0.032618933175067
565,6.352,0.0291488339011237
566,6.360,0.0339174219356393
567,6.367,0.0484526603460114
568,6.375,0.0526671518835587
569,6.382,0.0348856915717557
570,6.390,0.0303129962381885
571,6.397,0.0377457250056025
572,6.405,0.0319193163859655
573,6.412,0.0253261277654732
574,6.420,0.0478873699804174
575,6.428,0.0445460001956688
576,6.435,0.0329827339053997
577,6.443,0.0328316166789538
578,6.450,0.102228005223507
579,6.458,0.118016956919949
580,6.465,0.0980862738320261
581,6.473,0.0625065624054818
582,6.480,0.0457829226788002
583,6.488,0.0241227868882187
584,6.495,0.0388986934740418
585,6.503,0.0474787937755822
586,6.510,0.0531316974315221
587,6.518,0.0388986934740418
588,6.526,0.0220351303895399
589,6.533,0.0302570268950604
590,6.541,0.0264231268907843
591,6.548,0.0347345743453098
592,6.556,0.0450609181524475
593,6.563,0.0470310390305572
594,6.571,0.0259082089340057
595,6.578,0.0382214644221915
596,6.586,0.0190071889263087
597,6.593,0.042934083113579
598,6.601,0.0541223548048897
599,6.608,0.0273186363808342
600,6.616,0.0387643670505343
601,6.623,0.0406001615051365
602,6.631,0.0535066920304805
603,6.639,0.151167598854733
604,6.646,0.19465577846528
605,6.654,0.13073878861297
606,6.661,0.100996679674688
607,6.669,0.0847040038900932
608,6.676,0.0755586132229588
609,6.684,0.0701575716110955
610,6.691,0.0420105889519651
611,6.699,0.0575868571445202
612,6.706,0.0413557476373661
613,6.714,0.0315499187213199
614,6.721,0.0399509171248504
615,6.729,0.0704821938012385
616,6.737,0.0881573123610981
617,6.744,0.0754578684053282
618,6.752,0.04245834369699
619,6.759,0.0500869651653525
620,6.767,0.0367102921577324
621,6.774,0.0421169307039085
622,6.782,0.0600103297019677
623,6.789,0.0648292901452986
624,6.797,0.0496112257487635
625,6.804,0.0376617709909104
626,6.812,0.0418986502657089
627,6.819,0.0417195483676989
628,6.827,0.0300163587196095
629,6.834,0.0654337590510823
630,6.842,0.038652428364278
631,6.850,0.0466392536286604
632,6.857,0.043471388807609
633,6.865,0.0496392104203275
634,6.872,0.0389490658828571
635,6.880,0.0351319566815194
636,6.887,0.045760534941549
637,6.895,0.0524544683796718
638,6.902,0.0742601244623865
639,6.910,0.104136559824176
640,6.917,0.0799913851987057
641,6.925,0.039010632160298
642,6.932,0.0602509978774186
643,6.940,0.0382270613565043
644,6.948,0.0560868787486867
645,6.955,0.0568648526181675
646,6.963,0.0524824530512359
647,6.970,0.0499694295447834
648,6.978,0.0683161802221804
649,6.985,0.161544315070686
650,6.993,0.404132238990886
651,7.000,0.375912496185689
652,7.008,0.183736159620985
653,7.015,0.123322850648494
654,7.023,0.135227529931845
655,7.030,0.134891713873076
656,7.038,0.093631114119028
657,7.045,0.075553016288646
658,7.053,0.0646389943786631
659,7.061,0.0632285669318345
660,7.068,0.0574189491151359
661,7.076,0.0493313790331229
662,7.083,0.0362233588725177
663,7.091,0.0523705143649797
664,7.098,0.0555607669232824
665,7.106,0.0592099680952356
666,7.113,0.0634412504357213
667,7.121,0.0390945861749902
668,7.128,0.059853615541209
669,7.136,0.0433538531870399
670,7.143,0.0386692191672165
671,7.151,0.0530197587452658
672,7.158,0.0615382927693653
673,7.166,0.0416076096814426
674,7.174,0.0704877907355513
675,7.181,0.0502548731947368
676,7.189,0.0562156082378813
677,7.196,0.0471541715854391
678,7.204,0.0567585108662241
679,7.211,0.045850085890554
680,7.219,0.0415628342069402
681,7.226,0.0631222251798911
682,7.234,0.0833943212608953
683,7.241,0.0650027951089958
684,7.249,0.0405441921620084
685,7.256,0.0512847091082942
686,7.264,0.0516876883788166
687,7.272,0.0516653006415654
688,7.279,0.0460068000513127
689,7.287,0.0525608101316153
690,7.294,0.0423184203391697
691,7.302,0.0498071184497119
692,7.309,0.0409919469070334
693,7.317,0.0622994758359077
694,7.324,0.0498798785957784
695,7.332,0.040941574498218
