#"+EI TIC Scan IPA-PLA.d "
#Point,X(Minutes),Y(Counts)
0,2.095,0.269898254349022
1,2.102,0.255241002346099
2,2.110,0.261731156726433
3,2.117,0.240626420654684
4,2.125,0.210641992758165
5,2.132,0.207194231588337
6,2.140,0.207966564226627
7,2.148,0.201203319852644
8,2.155,0.189789011524312
9,2.163,0.203669663857794
10,2.170,0.183815167913223
11,2.178,0.165620547086305
12,2.185,0.157581460398239
13,2.193,0.16937980153014
14,2.200,0.155345536075231
15,2.208,0.16044037126926
16,2.215,0.141362474994131
17,2.223,0.142032398884803
18,2.230,0.144008034307613
19,2.238,0.137389868992756
20,2.246,0.128941147314215
21,2.253,0.125049614904706
22,2.261,0.122796622457095
23,2.268,0.134309072501894
24,2.276,0.131539769285039
25,2.283,0.11427109421784
26,2.291,0.117386026957908
27,2.298,0.10653923377263
28,2.306,0.109457883079762
29,2.313,0.110230215718053
30,2.321,0.102993330886333
31,2.328,0.108147904516473
32,2.336,0.112167447860506
33,2.343,0.107166487351794
34,2.351,0.0909816381968926
35,2.359,0.100006409080788
36,2.366,0.0984532097419052
37,2.374,0.0858270645667525
38,2.381,0.100804343905984
39,2.389,0.0943952631175151
40,2.396,0.0896759266647545
41,2.404,0.110614248521623
42,2.411,0.142292687785
43,2.419,0.268639480159543
44,2.426,0.342488988286061
45,2.434,0.144908377880427
46,2.441,0.0964434380698887
47,2.449,0.0959015251137398
48,2.457,0.0852083450498897
49,2.464,0.0885707655967029
50,2.472,0.0886518391885677
51,2.479,0.0685114521568946
52,2.487,0.0796868067407827
53,2.494,0.103164012132364
54,2.502,0.0875253429647622
55,2.509,0.0826993307332321
56,2.517,0.0787139236384053
57,2.524,0.0782829534921767
58,2.532,0.0766358794679763
59,2.539,0.0753387019981397
60,2.547,0.0744340913941748
61,2.554,0.0730131700209656
62,2.562,0.0813637499830385
63,2.570,0.0739689849987399
64,2.577,0.0759702226084549
65,2.585,0.0815429652913712
66,2.592,0.078893138946738
67,2.600,0.082528649487201
68,2.607,0.0818715266899811
69,2.615,0.0874272012482944
70,2.622,0.0727656822142205
71,2.630,0.0861598929965132
72,2.637,0.0747114484189753
73,2.645,0.0639286607009589
74,2.652,0.0827932054185492
75,2.660,0.0667875715719802
76,2.668,0.0712764883425989
77,2.675,0.0526978347121107
78,2.683,0.0688528146489569
79,2.690,0.0702908041467691
80,2.698,0.0693435232312964
81,2.705,0.0527021017432614
82,2.713,0.0660835114321018
83,2.720,0.0659170972172215
84,2.728,0.0652258381707954
85,2.735,0.0712252839687896
86,2.743,0.0782829534921767
87,2.750,0.0617311396583081
88,2.758,0.0814746927929588
89,2.765,0.0643468297537351
90,2.773,0.0817221805997039
91,2.781,0.0712210169376388
92,2.788,0.077527688978489
93,2.796,0.0621834449602906
94,2.803,0.0641420122584978
95,2.811,0.0588764958184375
96,2.818,0.0805103437528829
97,2.826,0.086761544388773
98,2.833,0.0617439407517604
99,2.841,0.06229012073906
100,2.848,0.0680250106057059
101,2.856,0.0844829497542574
102,2.863,0.0855795767600074
103,2.871,0.0658530917499598
104,2.879,0.0591581198743888
105,2.886,0.0532354806371087
106,2.894,0.0593885395565309
107,2.901,0.0770327133649987
108,2.909,0.0691813760475668
109,2.916,0.0718440034856524
110,2.924,0.0638390530467925
111,2.931,0.0819227310637905
112,2.939,0.0668345089146388
113,2.946,0.0682767654436018
114,2.954,0.0616628671598956
115,2.961,0.334833934401565
116,2.969,6.25805775494935
117,2.976,33.4059894950814
118,2.984,83.2896574248177
119,2.992,100
120,2.999,2.85881699633607
121,3.007,0.12726847110311
122,3.014,0.10385100414764
123,3.022,0.0976126046052019
124,3.029,0.071600782710058
125,3.037,0.0732521237654092
126,3.044,0.091165120536376
127,3.052,0.0912931314708994
128,3.059,0.0922361453552214
129,3.067,0.0789912806632059
130,3.074,0.0782786864610259
131,3.082,0.0619359571535454
132,3.089,0.0698854361874452
133,3.097,0.0666254243882507
134,3.105,0.0621663768356875
135,3.112,0.0432420936819862
136,3.120,0.0668729121949958
137,3.127,0.0652087700461923
138,3.135,0.106287478934734
139,3.142,0.0839239686735055
140,3.150,0.0534573662569492
141,3.157,0.0566491055577313
142,3.165,0.0771180539880142
143,3.172,0.0747498516993323
144,3.180,0.060847864210097
145,3.187,0.0595421526779589
146,3.195,0.0587015475412556
147,3.203,0.0385995637899395
148,3.210,0.0499498666510095
149,3.218,0.0561455958819394
150,3.225,0.0593714714319277
151,3.233,0.0493482152587498
152,3.240,0.0461735440825708
153,3.248,0.0455889608149142
154,3.255,0.0495999700966457
155,3.263,0.0612745673251748
156,3.270,0.0593031989335153
157,3.278,0.0538243309359161
158,3.285,0.0440058922579755
159,3.293,0.0428665949407177
160,3.300,0.0443515217811885
161,3.308,0.0483155937202615
162,3.316,0.0642230858503626
163,3.323,0.0614367145089044
164,3.331,0.0509952892829502
165,3.338,0.0448934347373373
166,3.346,0.0436261264855562
167,3.353,0.0503082972676749
168,3.361,0.0425679027601632
169,3.368,0.0431652871212722
170,3.376,0.0471805634341545
171,3.383,0.0389025230016448
172,3.391,0.0398754061040222
173,3.398,0.0273516696764882
174,3.406,0.0255424484685583
175,3.414,0.0361246857224882
176,3.421,0.0464423670450698
177,3.429,0.035646778233601
178,3.436,0.0372853181954998
179,3.444,0.0369524897657391
180,3.451,0.0235796141392003
181,3.459,0.0299545586784629
182,3.466,0.0371786424167304
183,3.474,0.0393804304905319
184,3.481,0.039167078932993
185,3.489,0.0756117919917895
186,3.496,0.100501384694279
187,3.504,0.0500138721182712
188,3.511,0.0328988101724998
189,3.519,0.0375882774072051
190,3.527,0.0273388685830359
191,3.534,0.0366879338343909
192,3.542,0.0234814724227324
193,3.549,0.0212540821620262
194,3.557,0.0360137429125679
195,3.564,0.0281026671590252
196,3.572,0.0288195283923559
197,3.579,0.0309658450611973
198,3.587,0.0198459618822694
199,3.594,0.0388427845655339
200,3.602,0.0402167685960844
201,3.609,0.0310085153727051
202,3.617,0.0412365890411204
203,3.625,0.0326811915838102
204,3.632,0.0184591767582665
205,3.640,0.0257814022130018
206,3.647,0.0233833307062645
207,3.655,0.0304495342919532
208,3.662,0.0235966822638034
209,3.670,0.0271212499943462
210,3.677,0.0335516659385689
211,3.685,0.0303087222639775
212,3.692,0.00820550090294646
213,3.700,0.0320368698800427
214,3.707,0.0280642638786682
215,3.715,0.0242410039675709
216,3.722,0.0337266142157508
217,3.730,0.0259094131475252
218,3.738,0.0280685309098189
219,3.745,0.0279447870064464
220,3.753,0.0362697647816146
221,3.760,0.0284397626199366
222,3.768,0.0330566903250786
223,3.775,0.0182031548892198
224,3.783,0.0330780254808325
225,3.790,0.0266390754743082
226,3.798,0.020315335308855
227,3.805,0.0227987474386079
228,3.813,0.0238825733509055
229,3.820,0.0290926183860057
230,3.828,0.0298777521177489
231,3.835,0.0354291596449113
232,3.843,0.0190096237767168
233,3.851,0.0222354993267052
234,3.858,0.0221586927659911
235,3.866,0.021834398398532
236,3.873,0.0200038420348482
237,3.881,0.0254357726897888
238,3.888,0.0101640682011537
239,3.896,0.0112436270823005
240,3.903,0.0164494050862499
241,3.911,0.0204604143679814
242,3.918,0.0242154017806662
243,3.926,0.0133600745330865
244,3.933,0.0252309551945514
245,3.941,0.0230761044634085
246,3.949,0.0279447870064464
247,3.956,0.0206524307697664
248,3.964,0.0468263998486399
249,3.971,0.0737300312542964
250,3.979,0.0529538565811574
251,3.986,0.0163725985255359
252,3.994,0.0220136137068647
253,4.001,0.0227944804074571
254,4.009,0.0326854586149609
255,4.016,0.0215869105917869
256,4.024,0.0313456108336166
257,4.031,0.0222696355759114
258,4.039,0.0190437600259231
259,4.046,0.0089607654166342
260,4.054,0.0305903463199289
261,4.062,0.0241513963134046
262,4.069,0.0229011561862266
263,4.077,0.011119883178928
264,4.084,0.0188389425306857
265,4.092,0.0192741797080651
266,4.099,0.0245994345842363
267,4.107,0.0237246931983267
268,4.114,0.0239039085066594
269,4.122,0.0222653685447606
270,4.129,0.0186383920665991
271,4.137,0.0243604808397927
272,4.144,0.020545754990997
273,4.152,0.035877197915743
274,4.160,0.0189754875275106
275,4.167,0.0323696983098034
276,4.175,0.0211047360717489
277,4.182,0.027701566230852
278,4.190,0.019141901742391
279,4.197,0.0218045291804766
280,4.205,0.0256789934653832
281,4.212,0.0253034947241147
282,4.220,0.0170809256965651
283,4.227,0.00951974649738614
284,4.235,0.030163643204851
285,4.242,0.0232339846159872
286,4.250,0.0204518803056799
287,4.257,0.0279575880998987
288,4.265,0.0212839513800816
289,4.273,0.0184463756648141
290,4.280,0.0317936491044483
291,4.288,0.0110217414624601
292,4.295,0.0140257313926079
293,4.303,0.0258838109606205
294,4.310,0.0249663992632032
295,4.318,0.026220906421532
296,4.325,0.0206780329566711
297,4.333,0.0193381851753268
298,4.340,0.0131893932870554
299,4.348,0.0178276561479513
300,4.355,0.0219197390215476
301,4.363,0.0186810623781069
302,4.371,0.013889186395783
303,4.378,0.00873887979679373
304,4.386,0.0230803714945592
305,4.393,0.00326854586149609
306,4.401,0.019756354228103
307,4.408,0.0294169127534648
308,4.416,0.0803652646937564
309,4.423,0.139647128471518
310,4.431,0.0472787051506224
311,4.438,0.0227603441582509
312,4.446,0.0187322667519163
313,4.453,0.0189925556521137
314,4.461,0.0211004690405982
315,4.468,0.0200593134398083
316,4.476,0.0279277188818433
317,4.484,0.032433703777065
318,4.491,0.026566535944745
319,4.499,0.0170169202293034
320,4.506,0.0230803714945592
321,4.514,0.0252181541010991
322,4.521,0.0207847087354406
323,4.529,0.0216253138721439
324,4.536,0.0274028740502975
325,4.544,0.0146743201275262
326,4.551,0.0154423857346663
327,4.559,0.0181306153596565
328,4.566,0.00794947903389977
329,4.574,0.0213138205981371
330,4.581,0.015062619962247
331,4.589,0.0295577247814405
332,4.597,0.0169145114816847
333,4.604,0.0206737659255203
334,4.612,0.0281197352836283
335,4.619,0.00960508712040171
336,4.627,0.0118922158172188
337,4.634,0.0248810586401876
338,4.642,0.0162275194664095
339,4.649,0.0305647441330242
340,4.657,0.0158562877562918
341,4.664,0.0200166431283005
342,4.672,0.0259606175213345
343,4.679,0.0173924189705719
344,4.687,0.014081202797568
345,4.695,0.0114527116086887
346,4.702,0.0138678512400291
347,4.710,0.0154637208904202
348,4.717,0.00349469851248734
349,4.725,0.0271340510877985
350,4.732,0.014234815918996
351,4.740,0.0185189151943773
352,4.747,0.0182543592630291
353,4.755,0.015177829803318
354,4.762,0.0199142343806818
355,4.770,0.0180154055185855
356,4.777,0.0115679214497597
357,4.785,0.0163256611828774
358,4.792,0.00540632846803597
359,4.800,0.0120287608140437
360,4.808,0.0131509900066984
361,4.815,0.0055556745583132
362,4.823,0.0237460283540806
363,4.830,0.0114015072348793
364,4.838,0.0389793295623588
365,4.845,0.0362356285324084
366,4.853,0.0120458289386468
367,4.860,0.0157410779152207
368,4.868,0.0280642638786682
369,4.875,0.00806042184382
370,4.883,0.0146060476291137
371,4.890,0.0177551166183881
372,4.898,0.0146743201275262
373,4.906,0.018813340343781
374,4.913,0.00927652572179179
375,4.921,0.0179855363005301
376,4.928,0.00879861823290463
377,4.936,0.00529965268926651
378,4.943,0.0111369513035311
379,4.951,0.00436517286724609
380,4.958,0.00325574476804376
381,4.966,0.01650487649121
382,4.973,0.0133856767199912
383,4.981,0.0157240097906176
384,4.988,0.0225043222892042
385,4.996,0.0200209101594513
386,5.003,0.0299246894604075
387,5.011,0.0216722512148024
388,5.019,0.0176441738084678
389,5.026,0.0154637208904202
390,5.034,0.0073179584235846
391,5.041,0.00380619178649415
392,5.049,0.0141921456074883
393,5.056,0.019333918144176
394,5.064,0.0167865005471614
395,5.071,0.0228115485320602
396,5.079,0.0127114857981682
397,5.086,0.0130741834459844
398,5.094,0.0113247006741653
399,5.101,0.0164878083666069
400,5.109,0.015177829803318
401,5.117,0.0217277226197625
402,5.124,0.0317509787929405
403,5.132,0.019218708303105
404,5.139,0.0190821633062801
405,5.147,0.000413902021625485
406,5.154,0.0126944176735651
407,5.162,0.0107614525622626
408,5.169,0.00311493274006808
409,5.177,0.00798361528310599
410,5.184,0.00911864556921299
411,5.192,0.0252181541010991
412,5.199,0.011887948786068
413,5.207,0.0169571817931925
414,5.214,0.0118068751942033
415,5.222,0.00998058586167019
416,5.230,0.0189370842471536
417,5.237,0.00770625825830541
418,5.245,0.0157325438529192
419,5.252,0
420,5.260,0.0144439004453842
421,5.267,0.0183482339483462
422,5.275,0.0225256574449581
423,5.282,0.00788974059778887
424,5.290,0.0196838146985398
425,5.297,0.00951547946623536
426,5.305,0.00558981080751943
427,5.312,0.0138678512400291
428,5.320,0.0191461687735417
429,5.328,0.0104200900702003
430,5.335,0.0155447944822849
431,5.343,0.00858526667536572
432,5.350,0.0145719113799075
433,5.358,0.0097245639926235
434,5.365,0.0281368034082314
435,5.373,0.0160483041580768
436,5.380,0.0167011599241458
437,5.388,0.0146572520029231
438,5.395,0.00406221365554084
439,5.403,0.0107870547491673
440,5.410,0.014409764196178
441,5.418,0.0109748041198015
442,5.425,0.0116020576989659
443,5.433,0.0123487881503521
444,5.441,0.0161464458745447
445,5.448,0.0199995750036974
446,5.456,0.0193893895491361
447,5.463,0.0300911036752878
448,5.471,0.0363679064980825
449,5.478,0.0315162920796477
450,5.486,0.022931025404282
451,5.493,0.0308677033447294
452,5.501,0.0172516069425962
453,5.508,0.013466750311856
454,5.516,0.0158306855693871
455,5.523,0.0297070708717178
456,5.531,0.00511617034978305
457,5.538,0.00459559254938811
458,5.546,0.0142006796697898
459,5.554,0.0150882221491517
460,5.561,0.0261312987673656
461,5.569,0.0111070820854756
462,5.576,0.0168377049209707
463,5.584,0.0159074921301011
464,5.591,0.0277357024800582
465,5.599,0.0278082420096215
466,5.606,0.0202683979661964
467,5.614,0.0206182945205602
468,5.621,0.0200763815644114
469,5.629,0.0182330241072752
470,5.636,0.0222013630774989
471,5.644,0.0130272461033258
472,5.652,0.0164323369616468
473,5.659,0.0164750072731546
474,5.667,0.0215954446540884
475,5.674,0.00794094497159821
476,5.682,0.0268310918760933
477,5.689,0.0150924891803025
478,5.697,0.0186767953469561
479,5.704,0.0127797582965807
480,5.712,0.0162445875910126
481,5.719,0.0215698424671838
482,5.727,0.0442491130335698
483,5.734,0.0185530514435836
484,5.742,0.0289347382334269
485,5.749,0.022662202441783
486,5.757,0.0139318567072908
487,5.765,0.0106718449080963
488,5.772,0.0205158857729415
489,5.780,0.0174990947493414
490,5.787,0.0277314354489075
491,5.795,0.0228670199370203
492,5.802,0.0282008088754931
493,5.810,0.01025367585532
494,5.817,0.0183268987925923
495,5.825,0.0214034282523034
496,5.832,0.015967230566212
497,5.840,0.00540206143688519
498,5.847,0.0277911738850184
499,5.855,0.0236265514818588
500,5.863,0.0248981267647907
501,5.870,0.0123445211192013
502,5.878,0.0128096275146361
503,5.885,0.0168505060144231
504,5.893,0.00647735328688129
505,5.900,0.0160611052515291
506,5.908,0.00995071664361474
507,5.915,0.0130443142279289
508,5.923,0.0131552570378492
509,5.930,0.00370805007002625
510,5.938,0.0179087297398161
511,5.945,0.0119903575336867
512,5.953,0.0029143822759815
513,5.960,0.00718994748906125
514,5.968,0.0149602112146283
515,5.976,0.00748010560731417
516,5.983,0.0103987549144465
517,5.991,0.0166926258618443
518,5.998,0.0085297952704056
519,6.006,0.0210407306044873
520,6.013,0.0251413475403851
521,6.021,0.0267628193776808
522,6.028,0.0243988841201497
523,6.036,0.014716990439034
524,6.043,0.019065095181677
525,6.051,0.023758829447533
526,6.058,0.0225640607253151
527,6.066,0.0188944139356458
528,6.074,0.0188432095618365
529,6.081,0.0205670901467509
530,6.089,0.0105096977243667
531,6.096,0.0240404535034843
532,6.104,0.0187279997207655
533,6.111,0.0150583529310962
534,6.119,0.0253803012848287
535,6.126,0.0447355545847586
536,6.134,0.0675769723348742
537,6.141,0.0572294217942371
538,6.149,0.0479059587297868
539,6.156,0.0298606839931458
540,6.164,0.0313242756778627
541,6.171,0.0277314354489075
542,6.179,0.021450365594962
543,6.187,0.0227176738467431
544,6.194,0.0296558664979084
545,6.202,0.0320070006619872
546,6.209,0.0328902761101983
547,6.217,0.0135648920283239
548,6.224,0.0220349488626186
549,6.232,0.0268524270318472
550,6.239,0.0177295144314834
551,6.247,0.0280514627852158
552,6.254,0.0211559404455583
553,6.262,0.0119434201910282
554,6.269,0.0132960690658248
555,6.277,0.0117940741007509
556,6.284,0.0202940001531011
557,6.292,0.0151692957410165
558,6.300,0.0273986070191468
559,6.307,0.00950694540393381
560,6.315,0.014793796999748
561,6.322,0.0256277890915738
562,6.330,0.0217149215263102
563,6.337,0.0160483041580768
564,6.345,0.00896503244778498
565,6.352,0.00951547946623536
566,6.360,0.0166115522699795
567,6.367,0.0261611679854211
568,6.375,0.0141238731090758
569,6.382,0.00934906525135502
570,6.390,0.0112820303626575
571,6.398,0.0173454816279133
572,6.405,0.0112777633315068
573,6.413,0.0251925519141944
574,6.420,0.0184250405090602
575,6.428,0.0172089366310884
576,6.435,0.0170211872604542
577,6.443,0.0098013705533375
578,6.450,0.0123530551815029
579,6.458,0.00938320150056124
580,6.465,0.0192400434588589
581,6.473,0.0298222807127888
582,6.480,0.0202683979661964
583,6.488,0.0143756279469717
584,6.495,0.015928827285855
585,6.503,0.00931066197099801
586,6.511,0.00891809510512642
587,6.518,0.0149730123080807
588,6.526,0.014042799517211
589,6.533,0.0181476834842596
590,6.541,0.0177593836495388
591,6.548,0.0197094168854445
592,6.556,0.018352500979497
593,6.563,0.020430545149926
594,6.571,0.0177465825560865
595,6.578,0.0130144450098735
596,6.586,0.0167608983602567
597,6.593,0.0208572482650038
598,6.601,0.028222144031247
599,6.609,0.0286659152709279
600,6.616,0.0236308185130096
601,6.624,0.00226579354106322
602,6.631,0.0148023310620495
603,6.639,0.0164195358681945
604,6.646,0.0148748705916128
605,6.654,0.00595250845533558
606,6.661,0.0167224950798997
607,6.669,0.0319515292570271
608,6.676,0.0137867776481643
609,6.684,0.022585395881069
610,6.691,0.0102707439799231
611,6.699,0.010292079135677
612,6.706,0.0276930321685505
613,6.714,0.016948647730891
614,6.722,0.0187066645650116
615,6.729,0.0168121027340661
616,6.737,0.0231913143044795
617,6.744,0.0280301276294619
618,6.752,0.00570075361743966
619,6.759,0.0188304084683842
620,6.767,0.0248426553598306
621,6.774,0.0198544959445709
622,6.782,0.0216082457475408
623,6.789,0.0181519505154104
624,6.797,0.0126730825178112
625,6.804,0.00626826876049316
626,6.812,0.0189968226832645
627,6.820,0.0172729420983501
628,6.827,0.0215058369999221
629,6.835,0.02270060572214
630,6.842,0.0200635804709591
631,6.850,0.0229011561862266
632,6.857,0.0085297952704056
633,6.865,0.0092935938463949
634,6.872,0.0148492684047081
635,6.880,0.021083400915995
636,6.887,0.0253461650356225
637,6.895,0.0276716970127966
638,6.902,0.0175118958427937
639,6.910,0.0166414214880349
640,6.917,0.0219709433953569
641,6.925,0.0164195358681945
642,6.933,0.0193936565802869
643,6.940,0.023238251647138
644,6.948,0.0167694324225583
645,6.955,0.0198630300068725
646,6.963,0.0167779664848598
647,6.970,0.00811589324878012
648,6.978,0.0208487142027022
649,6.985,0.0278807815391847
650,6.993,0.0203622726515135
651,7.000,0.0232894560209474
652,7.008,0.0181946208269182
653,7.015,0.0311109241203238
654,7.023,0.0719250770775172
655,7.031,0.149158340906602
656,7.038,0.118516790212864
657,7.046,0.0703932128943878
658,7.053,0.0552537863714268
659,7.061,0.0303129892951283
660,7.068,0.0473384435867332
661,7.076,0.0196966157919921
662,7.083,0.0409293627982644
663,7.091,0.0379296398992673
664,7.098,0.0401015587550134
665,7.106,0.0261483668919688
666,7.113,0.0299886949276691
667,7.121,0.0306500847560397
668,7.128,0.0312560031794503
669,7.136,0.029182226040172
670,7.144,0.0301081717998909
671,7.151,0.0283160187165641
672,7.159,0.0672142746870581
673,7.166,0.0922361453552214
674,7.174,0.0745791704533012
675,7.181,0.0557402279226155
676,7.189,0.0492927438537897
677,7.196,0.047035484375028
678,7.204,0.0454438817557877
679,7.211,0.0476670049853432
680,7.219,0.0513323847438616
681,7.226,0.134219464847728
682,7.234,0.175759013100554
683,7.241,0.158490338033354
684,7.249,0.101209711865308
685,7.257,0.0791150245665784
686,7.264,0.066983855004916
687,7.272,0.0618847527797361
688,7.279,0.055172712779562
689,7.287,0.053209878450204
690,7.294,0.0394999073627537
691,7.302,0.0460711353349521
692,7.309,0.058539400357526
693,7.317,0.0296942697782654
694,7.324,0.0393761634593811
