#"+EI TIC Scan IPA-TPU.d "
#Point,X(Minutes),Y(Counts)
0,2.095,0.758458873691941
1,2.102,0.57512305178505
2,2.110,0.373970280862268
3,2.117,0.315538750538049
4,2.125,0.304840094341249
5,2.132,0.281066481513258
6,2.140,0.251893150287477
7,2.148,0.241894654040095
8,2.155,0.22243869423352
9,2.163,0.210493541157073
10,2.170,0.191902172803188
11,2.178,0.196060698563373
12,2.185,0.183717727333847
13,2.193,0.179341727649979
14,2.200,0.16718440489189
15,2.208,0.161954422239414
16,2.215,0.152321918692865
17,2.223,0.130123665751066
18,2.230,0.13064878571313
19,2.238,0.132876567370372
20,2.246,0.122665901441348
21,2.253,0.133062215841808
22,2.261,0.134558012097385
23,2.268,0.121833135440903
24,2.276,0.117250270317435
25,2.283,0.116125771004732
26,2.291,0.111495167702895
27,2.298,0.118857455655874
28,2.306,0.117107055782327
29,2.313,0.129312116718785
30,2.321,0.645192089147335
31,2.328,0.529294400550368
32,2.336,0.211204309590574
33,2.343,0.160739750812013
34,2.351,0.136324324697055
35,2.359,0.138350545156736
36,2.366,0.120777591274734
37,2.374,0.121223147606182
38,2.381,0.12131331972088
39,2.389,0.104525393660953
40,2.396,0.11298565971643
41,2.404,0.135533992632938
42,2.411,0.173984443188518
43,2.419,0.34839322574032
44,2.426,0.326942870926309
45,2.434,0.124676209174907
46,2.441,0.100324433964441
47,2.449,0.0995712315946116
48,2.456,0.0924900684698084
49,2.464,0.0965265966630483
50,2.472,0.0856953344152219
51,2.479,0.0845124884400675
52,2.487,0.0960969530577231
53,2.494,0.0835948545669657
54,2.502,0.0938161289800712
55,2.509,0.0851808229372399
56,2.517,0.0836478969873762
57,2.524,0.0761742199515351
58,2.532,0.0667538860866284
59,2.539,0.0900554213729659
60,2.547,0.0607653968222816
61,2.554,0.0777867095320147
62,2.562,0.090373675895429
63,2.570,0.0679950787242343
64,2.577,0.0718990008664479
65,2.585,0.066615975793561
66,2.592,0.0747632915686155
67,2.600,0.0774790634936337
68,2.607,0.067448741794006
69,2.615,0.0709442372990587
70,2.622,0.0597788078026461
71,2.630,0.0712200578851934
72,2.637,0.0775161931879211
73,2.645,0.0776965374173168
74,2.652,0.0848943938670232
75,2.660,0.0704933767255694
76,2.667,0.0550686408701927
77,2.675,0.0719626517709405
78,2.683,0.0628658766705379
79,2.690,0.0594446405540599
80,2.698,0.0646056680600026
81,2.705,0.0573123352535574
82,2.713,0.0457968257824354
83,2.720,0.0620702403643802
84,2.728,0.0558801899024736
85,2.735,0.076778903544215
86,2.743,0.0681542059854658
87,2.750,0.0655179976910634
88,2.758,0.0646109723020437
89,2.765,0.0562196613931008
90,2.773,0.0639956802252818
91,2.781,0.0854884689756209
92,2.788,0.0732356698607928
93,2.796,0.0568190407437396
94,2.803,0.0438183435011233
95,2.811,0.0536789294554373
96,2.818,0.07761166954466
97,2.826,0.0771608089711707
98,2.833,0.0508146387532697
99,2.841,0.0604312295736954
100,2.848,0.0594075108597725
101,2.856,0.0759355290596878
102,2.863,0.0608290477267742
103,2.871,0.0661067685576201
104,2.878,0.058314836999316
105,2.886,0.0631735227089189
106,2.894,0.0708593694264019
107,2.901,0.0658044267612802
108,2.909,0.0700319076679979
109,2.916,0.0544533487934308
110,2.924,0.081558025623202
111,2.931,0.0651838304424772
112,2.939,0.0637251638811882
113,2.946,0.0611897361855657
114,2.954,0.0493559721919807
115,2.961,0.53026507684388
116,2.969,7.90479522045358
117,2.976,37.901880539452
118,2.984,83.6619054906066
119,2.992,100
120,2.999,3.01362633259136
121,3.007,0.117366963642338
122,3.014,0.103172811940485
123,3.022,0.0760999605629604
124,3.029,0.0801683142084466
125,3.037,0.0860984568103418
126,3.044,0.100743469085684
127,3.052,0.0847458750898737
128,3.059,0.0701963391712705
129,3.067,0.0735167946889685
130,3.074,0.0743389522053315
131,3.082,0.0722225596309521
132,3.089,0.0664939782266168
133,3.097,0.0665045867106989
134,3.105,0.0703342494643379
135,3.112,0.0481943431849905
136,3.120,0.0503690824218214
137,3.127,0.0654861722388171
138,3.135,0.100870770894669
139,3.142,0.0885384081492253
140,3.150,0.064849663193891
141,3.157,0.07947876274311
142,3.165,0.0919861654759085
143,3.172,0.0783542634304071
144,3.180,0.0449587555399493
145,3.187,0.0647011444167416
146,3.195,0.0546973439273192
147,3.202,0.0756597084735532
148,3.210,0.0789271215708407
149,3.218,0.0755483193906911
150,3.225,0.0601235835353145
151,3.233,0.0614549482876183
152,3.240,0.0463219457444994
153,3.248,0.0516102750594274
154,3.255,0.0615345119182341
155,3.263,0.0839290218155519
156,3.270,0.0506926411863256
157,3.278,0.0503372569695751
158,3.285,0.0587338721205591
159,3.293,0.0434152211060034
160,3.300,0.0459188233493796
161,3.308,0.0475047917196538
162,3.316,0.0694431368014413
163,3.323,0.0675017842144166
164,3.331,0.0492180618989133
165,3.338,0.0406357982764926
166,3.346,0.0636456002505724
167,3.353,0.119340141681609
168,3.361,0.0743283437212494
169,3.368,0.0455050924701776
170,3.376,0.0459559530436669
171,3.383,0.0314647637875152
172,3.391,0.0331409042724874
173,3.398,0.0338728896741525
174,3.406,0.0252481921154033
175,3.413,0.0218640856932127
176,3.421,0.0385087972180311
177,3.429,0.028531517938814
178,3.436,0.0355543344011657
179,3.444,0.0325733503740949
180,3.451,0.0402963267858654
181,3.459,0.031751192857732
182,3.466,0.023556138904308
183,3.474,0.0300379226784725
184,3.481,0.0264257338485167
185,3.489,0.0968554596695935
186,3.496,0.0816216765276946
187,3.504,0.0320906643483593
188,3.511,0.0191164883159482
189,3.519,0.0330560363998306
190,3.527,0.0408744891683399
191,3.534,0.0416329957802102
192,3.542,0.0164113248750122
193,3.549,0.0276085798236711
194,3.557,0.0199545585584343
195,3.564,0.0171008763403488
196,3.572,0.0248344612362013
197,3.579,0.0244684685353688
198,3.587,0.029051333658837
199,3.594,0.0247761145737498
200,3.602,0.0191005755898251
201,3.609,0.0202993342911026
202,3.617,0.0307858208062607
203,3.624,0.0144593638039054
204,3.632,0.0332257721451442
205,3.640,0.0286959494420866
206,3.647,0.0336501115084283
207,3.655,0.0443328549791053
208,3.662,0.0197636058449565
209,3.670,0.0253436684721423
210,3.677,0.0157960327982502
211,3.685,0.0363977088856928
212,3.692,0.0293218500029306
213,3.700,0.0285792561171834
214,3.707,0.0214980929923802
215,3.715,0.0210047984825624
216,3.722,0.025004196981515
217,3.730,0.0211904469539992
218,3.738,0.0167720133338036
219,3.745,0.0270092004730323
220,3.753,0.018983882264922
221,3.760,0.0112449931270284
222,3.768,0.0272584998489617
223,3.775,0.0146450122753421
224,3.783,0.020649414265812
225,3.790,0.0165386266839974
226,3.798,0.000169735745313636
227,3.805,0.0194930895008629
228,3.813,0.0184428495767347
229,3.820,0.0168515769644194
230,3.828,0.0220709511328137
231,3.835,0.0154353443394588
232,3.843,0.0140880668610318
233,3.851,0.0187982337934852
234,3.858,0.0334273333427042
235,3.866,0.034557136897448
236,3.873,0.04264080176801
237,3.881,0.0227392856299862
238,3.888,0.02593774358074
239,3.896,0.023237884381845
240,3.903,0.0200553391572143
241,3.911,0.0304145238633871
242,3.918,0.0257627035933853
243,3.926,0.0244790770194509
244,3.933,0.0151117855749546
245,3.941,0.0277411858746974
246,3.949,0.0365356191787601
247,3.956,0.028324652499213
248,3.964,0.0435955653353992
249,3.971,0.099507580690119
250,3.979,0.0666584097298894
251,3.986,0.0269932877469092
252,3.994,0.0246435085227235
253,4.001,0.031645108016911
254,4.009,0.0249299375929403
255,4.016,0.0156528182631419
256,4.024,0.0232537971079681
257,4.031,0.019402917386165
258,4.039,0.0361802349620097
259,4.046,0.043781213806836
260,4.054,0.0180344229395738
261,4.062,0.0286004730853476
262,4.069,0.0258528757080832
263,4.077,0.0173183502640319
264,4.084,0.0271311980399765
265,4.092,0.0204266361000879
266,4.099,0.0232219716557218
267,4.107,0.0171008763403488
268,4.114,0.0265689483836251
269,4.122,0.0146503165173832
270,4.129,0.0116003773437788
271,4.137,0.0243517752104657
272,4.144,0.0233917074010354
273,4.152,0.0154830825178282
274,4.159,0.0217261754001454
275,4.167,0.00866182725303648
276,4.175,0.0234712710316512
277,4.182,0.0194347428384113
278,4.190,0.0226809389675346
279,4.197,0.0206281972976478
280,4.205,0.0211745342278761
281,4.212,0.0204690700364163
282,4.220,0.0223732929291536
283,4.227,0.0202622045968153
284,4.235,0.0216413075274886
285,4.242,0.0297514936082557
286,4.250,0.0195832616155607
287,4.257,0.0282344803845151
288,4.265,0.0329552558010506
289,4.273,0.0132499966185457
290,4.280,0.0274123228681522
291,4.288,0.0182678095893801
292,4.295,0.0182465926212159
293,4.303,0.0202409876286511
294,4.310,0.0199651670425164
295,4.318,0.0166553200089005
296,4.325,0.0334326375847452
297,4.333,0.0221982529417989
298,4.340,0.01836859018816
299,4.348,0.0267492926130208
300,4.355,0.0150958728488315
301,4.363,0.0311359007809701
302,4.370,0.0153982146451714
303,4.378,0.0117701130890924
304,4.386,0.0152019576896525
305,4.393,0.0189308398445114
306,4.401,0.0123217542613618
307,4.408,0.0345624411394891
308,4.416,0.143750263554526
309,4.423,0.168738547809918
310,4.431,0.0512761078108412
311,4.438,0.0214238336038055
312,4.446,0.00939381265470153
313,4.453,0.00803592669219245
314,4.461,0.0206069803294836
315,4.468,0.00775480186401674
316,4.476,0.0234023158851175
317,4.484,0.0135841638671319
318,4.491,0.00266272950460766
319,4.499,0.00867773997915963
320,4.506,0.018983882264922
321,4.514,0.0343608799419292
322,4.521,0.01276731059281
323,4.529,0.0163105442762322
324,4.536,0.0129211336120005
325,4.544,0.00778132307422199
326,4.551,0.00967493748287724
327,4.559,0.0183102435257085
328,4.566,0.0106403095343485
329,4.574,0.0163741951807248
330,4.581,0.0252906260517317
331,4.589,0.0170902678562667
332,4.597,0.0120883676115555
333,4.604,0.0219754747760748
334,4.612,0.020543329424991
335,4.619,0.0281283955436941
336,4.627,0.022622592305083
337,4.634,0.00643404559579501
338,4.642,0.0224422480756873
339,4.649,0.0132393881344636
340,4.657,0.0128786996756721
341,4.664,0.00658256437294444
342,4.672,0.013902418389595
343,4.679,0.00920816418326474
344,4.687,0.0104970949992402
345,4.695,0.006640911035396
346,4.702,0.013387906911613
347,4.710,0.0139236353577592
348,4.717,0.0148996158933126
349,4.725,0.015361084950884
350,4.732,0.0222619038462916
351,4.740,0.0130855651152731
352,4.747,0.0189520568126757
353,4.755,0.0200129052208859
354,4.762,0.0100992768461613
355,4.770,0.0232962310442965
356,4.777,0.0227074601777398
357,4.785,0.0269349410844576
358,4.792,0.0182041586848874
359,4.800,0.0255346211856201
360,4.808,0.0307964292903428
361,4.815,0.0129370463381237
362,4.823,0.0271418065240586
363,4.830,0.0127407893826048
364,4.838,0.0172600036015803
365,4.845,0.0195832616155607
366,4.853,0.00973328414532881
367,4.860,0.0246753339749698
368,4.868,0.00977571808165721
369,4.875,0.0203311597433489
370,4.883,0.0147829225684095
371,4.890,0.0112237761588642
372,4.898,0.0301121820670472
373,4.905,0.0118019385413387
374,4.913,0.0465394196681825
375,4.921,0.0866713149507753
376,4.928,0.0539600542836131
377,4.936,0.0171910484550467
378,4.943,0.00499659600267016
379,4.951,0.017747993869357
380,4.958,0.0215458311707497
381,4.966,0.0122740160829923
382,4.973,0.0144328425937001
383,4.981,0.019089967105743
384,4.988,0.0267333798868976
385,4.996,0.00963250354654883
386,5.003,0.0108577834580316
387,5.011,0.0109850852670169
388,5.019,0.00821096667954713
389,5.026,0.0105925713559791
390,5.034,0.00522467841043535
391,5.041,0.0202993342911026
392,5.049,0.259828296380889
393,5.056,4.99260721265528
394,5.064,13.7725121977676
395,5.071,4.09272663766484
396,5.079,0.379921640432328
397,5.086,0.228331707141128
398,5.094,0.180635962707996
399,5.101,0.130070623330656
400,5.109,0.117923909056649
401,5.116,0.0918853848771286
402,5.124,0.0974548390202322
403,5.132,0.0860666313580955
404,5.139,0.0683133332466974
405,5.147,0.0753202369829259
406,5.154,0.0703872918847484
407,5.162,0.0474623577833254
408,5.169,0.068382288393231
409,5.177,0.0647329698689879
410,5.184,0.0602774065545049
411,5.192,0.0558642771763504
412,5.199,0.0472236668914781
413,5.207,0.0429484478063909
414,5.214,0.0518489659512747
415,5.222,0.0455157009542597
416,5.230,0.0308653844368765
417,5.237,0.0334008121324989
418,5.245,0.045133795527304
419,5.252,0.0408108382638473
420,5.260,0.0409063146205862
421,5.267,0.0246169873125183
422,5.275,0.0228347619867251
423,5.282,0.0277305773906153
424,5.290,0.0255558381537843
425,5.297,0.0184428495767347
426,5.305,0.0333212485018831
427,5.312,0.0151011770908725
428,5.320,0.0254020151345938
429,5.327,0.0248238527521192
430,5.335,0.0240653461402489
431,5.343,0.0218428687250485
432,5.350,0.0288073385249486
433,5.358,0.0223732929291536
434,5.365,0.0188724931820599
435,5.373,0.020962364546234
436,5.380,0.0333530739541294
437,5.388,0.0255611423958254
438,5.395,0.0268023350334313
439,5.403,0.0227286771459041
440,5.410,0.0239751740255511
441,5.418,0.0224634650438515
442,5.425,0.0650830498436973
443,5.433,0.196103132499701
444,5.441,0.149510670411108
445,5.448,0.0617944197782456
446,5.456,0.0461362972730626
447,5.463,0.0580284079290993
448,5.471,0.0573972031262142
449,5.478,0.0433886998957982
450,5.486,0.0426779314622973
451,5.493,0.0201826409661995
452,5.501,0.0302500923601145
453,5.508,0.0219595620499516
454,5.516,0.0246275957966004
455,5.523,0.0272372828807975
456,5.531,0.0477859165478295
457,5.538,0.0280753531232836
458,5.546,0.018161724748559
459,5.554,0.0266803374664871
460,5.561,0.0176790387228234
461,5.569,0.0169947914995278
462,5.576,0.0261127835680947
463,5.584,0.0227074601777398
464,5.591,0.0179813805191633
465,5.599,0.0225005947381389
466,5.606,0.0245109024716972
467,5.614,0.0144964934981927
468,5.621,0.0252216709051981
469,5.629,0.0118072427833798
470,5.636,0.011722374910723
471,5.644,0.0112874270633568
472,5.652,0.015875596428866
473,5.659,0.0199333415902701
474,5.667,0.0220815596168958
475,5.674,0.0382541936000607
476,5.682,0.023036323184285
477,5.689,0.0246329000386414
478,5.697,0.0361590179938455
479,5.704,0.0457703045722301
480,5.712,0.0326635224887928
481,5.719,0.0419777715128786
482,5.727,0.0250466309178434
483,5.734,0.0310351201821901
484,5.742,0.0245851618602719
485,5.749,0.0260279156954378
486,5.757,0.0375115997143135
487,5.765,0.0419353375765502
488,5.772,0.0416383000222513
489,5.780,0.0277358816326563
490,5.787,0.0285792561171834
491,5.795,0.0148730946831073
492,5.802,0.0259483520648221
493,5.810,0.0428582756916931
494,5.817,0.0587338721205591
495,5.825,0.0459771700118311
496,5.832,0.0197370846347512
497,5.840,0.0260809581158484
498,5.847,0.0333424654700473
499,5.855,0.0273168465114133
500,5.862,0.0214609632980928
501,5.870,0.0166181903146132
502,5.878,0.0241608224969879
503,5.885,0.0261605217464641
504,5.893,0.0191483137681945
505,5.900,0.024898112140694
506,5.908,0.0174456520730171
507,5.915,0.0224846820120157
508,5.923,0.0212806190686971
509,5.930,0.0179866847612043
510,5.938,0.00661438982519075
511,5.945,0.0171008763403488
512,5.953,0.0204637657943752
513,5.960,0.00939381265470153
514,5.968,0.0116481155221483
515,5.976,0.0238531764586069
516,5.983,0.00915512176285423
517,5.991,0.010475878031076
518,5.998,0.0164113248750122
519,6.006,0.0160188109639744
520,6.013,0.0296454087674347
521,6.021,0.0105342246935275
522,6.028,0.0526658192255966
523,6.036,0.0681435975013837
524,6.043,0.0595295084267167
525,6.051,0.0318042352781425
526,6.058,0.0284519543081982
527,6.066,0.014316149268797
528,6.073,0.0219807790181158
529,6.081,0.0161036788366312
530,6.089,0.0113616864519315
531,6.096,0.0151117855749546
532,6.104,0.0173024375379088
533,6.111,0.0142259771540991
534,6.119,0.00713950978725481
535,6.126,0.020644110023771
536,6.134,0.0266272950460766
537,6.141,0.0244154261149583
538,6.149,0.0161991551933701
539,6.156,0.0230946698467366
540,6.164,0.00886869269263747
541,6.171,0.0226703304834525
542,6.179,0.0342866205533544
543,6.187,0.0294756730221211
544,6.194,0.0183951113983653
545,6.202,0.0165492351680795
546,6.209,0.0239963909937153
547,6.217,0.0275502331612195
548,6.224,0.0169311405950352
549,6.232,0.0168038387860499
550,6.239,0.0210843621131782
551,6.247,0.0174880860093455
552,6.254,0.0202091621764048
553,6.262,0.0329446473169685
554,6.269,0.0375222081983956
555,6.277,0.0403175437540296
556,6.284,0.0313533747046532
557,6.292,0.0254338405868401
558,6.300,0.0195196107110681
559,6.307,0.019917428864147
560,6.315,0.0180291186975328
561,6.322,0.0413730879201987
562,6.330,0.0724877717330046
563,6.337,0.0596037678152914
564,6.345,0.0369705670261263
565,6.352,0.0374320360836978
566,6.360,0.0365303149367191
567,6.367,0.0158384667345786
568,6.375,0.0246010745863951
569,6.382,0.0358301549873003
570,6.390,0.0151595237533241
571,6.398,0.0234765752736923
572,6.405,0.0190422289273735
573,6.413,0.0265106017211735
574,6.420,0.0279692682824626
575,6.428,0.0246010745863951
576,6.435,0.0323983103867402
577,6.443,0.0195514361633144
578,6.450,0.0260968708419715
579,6.458,0.0169470533211583
580,6.465,0.0204902870045805
581,6.473,0.0186019768379663
582,6.480,0.0533606749329743
583,6.488,0.100764686053848
584,6.495,0.0743389522053315
585,6.503,0.0316875419532394
586,6.511,0.0654967807228992
587,6.518,0.132022584401762
588,6.526,0.0963833821279399
589,6.533,0.0700159949418748
590,6.541,0.0462635990820479
591,6.548,0.0518012277729052
592,6.556,0.0642927177795806
593,6.563,0.0354800750125909
594,6.571,0.0389914832437668
595,6.578,0.0435849568513171
596,6.586,0.0445238076925831
597,6.593,0.0347427853688848
598,6.601,0.0263620829440241
599,6.608,0.0314223298511868
600,6.616,0.0277358816326563
601,6.624,0.0287755130727023
602,6.631,0.0156262970529366
603,6.639,0.0395006904797077
604,6.646,0.0612746040582225
605,6.654,0.0467515893498246
606,6.661,0.0391771317152036
607,6.669,0.0287808173147434
608,6.676,0.0280700488812425
609,6.684,0.0294385433278337
610,6.691,0.0262241726509567
611,6.699,0.0306319977870702
612,6.706,0.0199492543163933
613,6.714,0.00454573542918081
614,6.722,0.0167189709133931
615,6.729,0.0155361249382387
616,6.737,0.0314541553034331
617,6.744,0.0218799984193359
618,6.752,0.0175464326717971
619,6.759,0.0108524792159906
620,6.767,0.0447359773742251
621,6.774,0.0943412489421352
622,6.782,0.0434364380741676
623,6.789,0.0120883676115555
624,6.797,0.0176472132705771
625,6.804,0.00532545900921532
626,6.812,0.00830644303628605
627,6.819,0.0121095845797197
628,6.827,0.0150852643647494
629,6.835,0.00830644303628605
630,6.842,0
631,6.850,0.0112980355474389
632,6.857,0.023036323184285
633,6.865,0.0195302191951502
634,6.872,0.0118178512674619
635,6.880,0.0130484354209858
636,6.887,0.0260120029693147
637,6.895,0.594457014024681
638,6.902,7.9066835306202
639,6.910,16.5587562825432
640,6.917,4.41343702419291
641,6.925,0.939503263037098
642,6.933,0.62165186296915
643,6.940,0.432115382116271
644,6.948,0.334724194000531
645,6.955,0.257685382596304
646,6.963,0.215681089873221
647,6.970,0.170801897963887
648,6.978,0.182847831639114
649,6.985,0.489316328286966
650,6.993,2.20176965427216
651,7.000,2.31073469852147
652,7.008,0.666234017324185
653,7.015,0.278536358059676
654,7.023,0.232543275321722
655,7.030,0.210615538724017
656,7.038,0.185579516290256
657,7.046,0.13645162650604
658,7.053,0.133125866746301
659,7.061,0.10930451573994
660,7.068,0.0942298598592732
661,7.076,0.09224607333592
662,7.083,0.0955824415797412
663,7.091,0.0799561445268046
664,7.098,0.0758082272507026
665,7.106,0.087053220377731
666,7.113,0.0678359514630028
667,7.121,0.0723286444717731
668,7.128,0.0540873560925983
669,7.136,0.0815368086550378
670,7.144,0.0927977145081894
671,7.151,0.103782799775206
672,7.159,0.0947708925474604
673,7.166,0.102981859227008
674,7.174,0.0787361688573628
675,7.181,0.0746412940016714
676,7.189,0.0976776171859564
677,7.196,0.138403587577147
678,7.204,0.1366531877036
679,7.211,0.0830432133946963
680,7.219,0.087673816696534
681,7.226,0.0952641870572781
682,7.234,0.104323832463393
683,7.241,0.06827620355241
684,7.249,0.0456695239734502
685,7.257,0.0610624343765805
686,7.264,0.0571372952662027
687,7.272,0.051148806001856
688,7.279,0.0526127768051861
689,7.287,0.0612852125423046
690,7.294,0.0492976255295291
691,7.302,0.05364179976115
692,7.309,0.0416648212324566
693,7.317,0.0359521525542445
694,7.324,0.0402379801234138
695,7.332,0.035485379254632
696,7.339,0.0292104609200685
697,7.347,0.0310775541185185
