#"+EI TIC Scan IPA-Blank.d "
#Point,X(Minutes),Y(Counts)
0,2.095,0.23616424598928
1,2.102,0.221793613069256
2,2.110,0.216969822833227
3,2.117,0.203296605369014
4,2.125,0.191735006923786
5,2.132,0.173021025526181
6,2.140,0.181870452754365
7,2.148,0.159169579667705
8,2.155,0.156608515132753
9,2.163,0.155047079417798
10,2.170,0.148510746784721
11,2.178,0.141319618529244
12,2.185,0.137669810977164
13,2.193,0.129215585840606
14,2.200,0.143725701851793
15,2.208,0.121923719797068
16,2.215,0.121919845266758
17,2.223,0.119285164655915
18,2.230,0.123795117936828
19,2.238,0.121423905387069
20,2.246,0.107750687922857
21,2.253,0.11776247424406
22,2.261,0.108494597742389
23,2.268,0.0947942585660053
24,2.276,0.103291103535974
25,2.283,0.109416735956184
26,2.291,0.111168023656332
27,2.298,0.0914195426659403
28,2.306,0.092318433697875
29,2.313,0.100187604757613
30,2.321,0.0992073485891673
31,2.328,0.0984828114211855
32,2.336,0.0844608862290669
33,2.343,0.0737168136792617
34,2.351,0.0855147584734041
35,2.359,0.095449054188406
36,2.366,0.0921324562429919
37,2.374,0.0885950100699043
38,2.381,0.0880487012961854
39,2.389,0.0785677256274608
40,2.396,0.091094082119895
41,2.404,0.0940464742161631
42,2.411,0.12327205634497
43,2.419,0.257447040982457
44,2.426,0.310636593079004
45,2.434,0.130478682721687
46,2.441,0.0776920817773865
47,2.449,0.0898774796025352
48,2.456,0.0750147813331329
49,2.464,0.069191362277108
50,2.472,0.0816634753452013
51,2.479,0.0805902304493138
52,2.487,0.0674981925316104
53,2.494,0.0761771404261518
54,2.502,0.0719112825547723
55,2.509,0.0703343487185766
56,2.517,0.0652935847851844
57,2.524,0.0767931907454519
58,2.532,0.0700243862937715
59,2.539,0.0761926385473921
60,2.547,0.0769094266547538
61,2.554,0.0752550022123568
62,2.562,0.0722793629342283
63,2.570,0.0575677713469185
64,2.577,0.073674193845851
65,2.585,0.0731550067843026
66,2.592,0.0657275321799115
67,2.600,0.063305950736122
68,2.607,0.0632827035542616
69,2.615,0.0523797752617439
70,2.622,0.0668511459698298
71,2.630,0.0512174161687249
72,2.637,0.0597878772145847
73,2.645,0.0625775390378301
74,2.652,0.0705513224159401
75,2.660,0.0511747963353143
76,2.667,0.0494312576957858
77,2.675,0.0614694233691521
78,2.683,0.0622055841280641
79,2.690,0.059257066562106
80,2.698,0.0663668296810719
81,2.705,0.0630657298568981
82,2.713,0.0701289986121432
83,2.720,0.0613493129295401
84,2.728,0.0575290260438178
85,2.735,0.0611904571868275
86,2.743,0.0693695906713709
87,2.750,0.0714308407963245
88,2.758,0.0784282425362985
89,2.765,0.0656771632858807
90,2.773,0.0581876961965286
91,2.781,0.0627247711896125
92,2.788,0.0726784395561648
93,2.796,0.0689743885797444
94,2.803,0.0528524679595716
95,2.811,0.0563356707083184
96,2.818,0.0709813952803571
97,2.826,0.0675679340771915
98,2.833,0.0697028002780363
99,2.841,0.0532205483390276
100,2.848,0.0616244045815546
101,2.856,0.0646930325871246
102,2.863,0.0555530155856856
103,2.871,0.0555530155856856
104,2.878,0.0603535586398539
105,2.886,0.0545456377050692
106,2.894,0.0565681425269222
107,2.901,0.0688775253219928
108,2.909,0.0641312256921655
109,2.916,0.0554639013885542
110,2.924,0.0657895246648725
111,2.931,0.0757819383345254
112,2.939,0.061713518778686
113,2.946,0.0522984101252326
114,2.954,0.0566262604815731
115,2.961,0.347750718919099
116,2.969,5.71754751530246
117,2.976,29.746644463025
118,2.984,72.3083056756445
119,2.992,100
120,2.999,5.5252855722565
121,3.007,0.12453515322605
122,3.014,0.11286506793214
123,3.022,0.0860765653683632
124,3.029,0.0818765745122547
125,3.037,0.0823763889222529
126,3.044,0.0922021977885731
127,3.052,0.0847088561689109
128,3.059,0.0779361771869205
129,3.067,0.0651734743455725
130,3.074,0.0695129482928432
131,3.082,0.0650417403150303
132,3.089,0.0631548440540295
133,3.097,0.0607991296255111
134,3.105,0.0640847313284447
135,3.112,0.0540225761132107
136,3.120,0.0515428767147703
137,3.127,0.0618491273395383
138,3.135,0.0765490953359179
139,3.142,0.08465073821426
140,3.150,0.0533794040817402
141,3.157,0.0377727959928058
142,3.165,0.0582961830452103
143,3.172,0.0631742167055799
144,3.180,0.0531159360206559
145,3.187,0.058644890773116
146,3.195,0.0405159634523305
147,3.203,0.0488771998614468
148,3.210,0.0385748237669888
149,3.218,0.0443749956411534
150,3.225,0.0546657481446812
151,3.233,0.0421045208794564
152,3.240,0.0431390204722433
153,3.248,0.0439875426101471
154,3.255,0.032022993012672
155,3.263,0.0560605790563039
156,3.270,0.0316975324666267
157,3.278,0.0357192949284723
158,3.285,0.0451886470062667
159,3.293,0.0369823918095529
160,3.300,0.0339680072283237
161,3.308,0.0494971247110569
162,3.316,0.0564054122538995
163,3.323,0.0519109570942263
164,3.331,0.0390281438132662
165,3.338,0.0370792550673045
166,3.346,0.042507472031703
167,3.353,0.0297835144934555
168,3.361,0.0344019546230508
169,3.368,0.0229372194355739
170,3.376,0.0386716870247404
171,3.383,0.0340764940770055
172,3.391,0.0294231831746197
173,3.398,0.0359517667470761
174,3.406,0.0262731900325383
175,3.413,0.0421703878947275
176,3.421,0.0303879412218254
177,3.429,0.0276137775198202
178,3.436,0.0304809299492669
179,3.444,0.0301283476910512
180,3.451,0.017481880759005
181,3.459,0.0264824146692817
182,3.466,0.0333635804999539
183,3.474,0.010798315974146
184,3.481,0.0233324215272004
185,3.489,0.0773123778070003
186,3.496,0.0981224801023496
187,3.504,0.0419340415458136
188,3.511,0.0188767116706277
189,3.519,0.0268466205184277
190,3.527,0.0247504996206835
191,3.534,0.0282375768997403
192,3.542,0.0254130443037043
193,3.549,0.0267768789728465
194,3.557,0.0270442215642409
195,3.564,0.0147774586025809
196,3.572,0.0224025342527852
197,3.579,0.0274549217771076
198,3.587,0.0212672968719367
199,3.594,0.0190936853679913
200,3.602,0.017357895789083
201,3.609,0.0241034530589029
202,3.617,0.0170324352430377
203,3.624,0.0194578912171372
204,3.632,0.0289853612495825
205,3.640,0.018097931078305
206,3.647,0.0256648887738584
207,3.655,0.0203451586581417
208,3.662,0.0244715334383589
209,3.670,0.0265792779270333
210,3.677,0.0204187747340329
211,3.685,0.034475570698942
212,3.692,0.013742959009794
213,3.700,0.0213757837206185
214,3.707,0.0190045711708598
215,3.715,0.023681129255106
216,3.722,0.012022667552126
217,3.730,0.0169510701065263
218,3.738,0.0169704427580767
219,3.745,0.0167650926516433
220,3.753,0.026129832411066
221,3.760,0.0177685960019497
222,3.768,0.023863232179679
223,3.775,0.0345763084870037
224,3.783,0.014785207663201
225,3.790,0.0269086130033887
226,3.798,0.0196554922629504
227,3.805,0.0236385094216954
228,3.813,0.0237005019066564
229,3.820,0.0219375906155776
230,3.828,0.0211743081444952
231,3.835,0.019322282656285
232,3.843,0.0175709949561364
233,3.851,0.024963598787737
234,3.858,0.0222010586766619
235,3.866,0.0192099212772932
236,3.873,0.0197794772328724
237,3.881,0.0254091697733942
238,3.888,0.016931697454976
239,3.896,0.0191789250348127
240,3.903,0.0215966319482921
241,3.911,0.0278385002778038
242,3.918,0.0284351779455535
243,3.926,0.0169355719852861
244,3.933,0.0166449822120313
245,3.941,0.0190975598983013
246,3.949,0.0255060330311458
247,3.956,0.0197678536419423
248,3.964,0.0290628518557838
249,3.971,0.0837867179551159
250,3.979,0.04784657479897
251,3.986,0.023615262239835
252,3.994,0.0164783774086986
253,4.001,0.0247776213328539
254,4.009,0.0256648887738584
255,4.016,0.0330846143176293
256,4.024,0.0239329737252602
257,4.031,0.0149169416937432
258,4.039,0.0197097356872913
259,4.046,0.0239368482555702
260,4.054,0.0222165567979022
261,4.062,0.0184078935031101
262,4.069,0.020794604174109
263,4.077,0.033065241666079
264,4.084,0.0265560307451729
265,4.092,0.0295122973717511
266,4.099,0.0263003117447087
267,4.107,0.0157189694679262
268,4.114,0.0205156379917844
269,4.122,0.0219647123277481
270,4.129,0.0211588100232549
271,4.137,0.025393671652154
272,4.144,0.0256648887738584
273,4.152,0.0210929430079839
274,4.159,0.0249326025452564
275,4.167,0.0209844561593021
276,4.175,0.0278346257474938
277,4.182,0.0227783636928613
278,4.190,0.0173036523647421
279,4.197,0.0332860898937526
280,4.205,0.0193300317169051
281,4.212,0.0267652553819163
282,4.220,0.0215617611755015
283,4.227,0.0369475210367623
284,4.235,0.0221545643129412
285,4.242,0.0116158418695694
286,4.250,0.0133206352059972
287,4.257,0.0128246953263091
288,4.265,0.0158662016197086
289,4.273,0.0220693246461198
290,4.280,0.0186287417307837
291,4.288,0.0279469871264856
292,4.295,0.018768224821946
293,4.303,0.0140916667376997
294,4.310,0.0187566012310158
295,4.318,0.0246730090144822
296,4.325,0.0255835236373471
297,4.333,0.0144016291625048
298,4.340,0.0158352053772281
299,4.348,0.0216896206757336
300,4.355,0.0220305793430191
301,4.363,0.0199577056271353
302,4.370,0.0143241385563035
303,4.378,0.0272611952616044
304,4.386,0.0203994020824825
305,4.393,0.0167147237576125
306,4.401,0.0190626891255108
307,4.408,0.0253510518187433
308,4.416,0.0994436949380811
309,4.423,0.138564827478789
310,4.431,0.0585480275153644
311,4.438,0.023065078935806
312,4.446,0.0210851939473637
313,4.453,0.0223482908284443
314,4.461,0.0203219114762813
315,4.468,0.0193997732624863
316,4.476,0.0184970077002415
317,4.484,0.0167883398335037
318,4.491,0.0191518033226422
319,4.499,0.0156298552707948
320,4.506,0.0099187975937617
321,4.514,0.0239949662102212
322,4.521,0.0172029145766804
323,4.529,0.017725976168539
324,4.536,0.00803965039338106
325,4.544,0.00699740173997407
326,4.551,0.0212479242203864
327,4.559,0.0166333586211012
328,4.566,0.0186597379732642
329,4.574,0.0337704061825105
330,4.581,0.0267652553819163
331,4.589,0.0215075177511606
332,4.597,0.0159126959834294
333,4.604,0.00941510865345348
334,4.612,0.0181947943360566
335,4.619,0.0167805907728836
336,4.627,0.0123055082647606
337,4.634,0.0193029100047347
338,4.642,0.0256183944101376
339,4.649,0.0119839222490254
340,4.657,0.0174160137437339
341,4.664,0.0112593850810436
342,4.672,0.0242158144378948
343,4.679,0.00713301030082628
344,4.687,0.0228868505415431
345,4.695,0.0187372285794655
346,4.702,0.0195353818233385
347,4.710,0.0111199019898813
348,4.717,0.0167302218788527
349,4.725,0.015521368422113
350,4.732,0.0108254376863165
351,4.740,0.0177763450625698
352,4.747,0.0195857507173693
353,4.755,0.0281019683388881
354,4.762,0.0187217304582252
355,4.770,0.00831861657570561
356,4.777,0.0129254331143707
357,4.785,0.0134291220546789
358,4.792,0.00927175103198115
359,4.800,0.00434334847758081
360,4.808,0.0285475393245454
361,4.815,0.00994204477562207
362,4.823,0.0153043947247495
363,4.830,0.0156686005738954
364,4.838,0.0213835327812386
365,4.845,0.016381514150947
366,4.853,0.0290008593708228
367,4.860,0.0230457062842557
368,4.868,0.0193455298381454
369,4.875,0.0194075223231064
370,4.883,0.0090973971680283
371,4.890,0.00980643621476986
372,4.898,0.0226040098289085
373,4.906,0.0259903493199037
374,4.913,0.0158507034984684
375,4.921,0.0241615710135539
376,4.928,0.0144636216474658
377,4.936,0.0140064270708783
378,4.943,0.0164125103934276
379,4.951,0.00903153015275723
380,4.958,0.0187992210644265
381,4.966,0.0248163666359546
382,4.973,0.0114569861268568
383,4.981,0.0151571625729671
384,4.988,0.0127510792504179
385,4.996,0.00812489006020245
386,5.003,0.00344445744564615
387,5.011,0.0149518124665337
388,5.019,0.0159863120593206
389,5.026,0.014169157343901
390,5.034,0.0143706329200243
391,5.041,0.0108680575197272
392,5.049,0.0186946087460548
393,5.056,0.012576725386465
394,5.064,0.016319521665986
395,5.071,0.0190200692921001
396,5.079,0.0211084411292241
397,5.086,0.025397546182464
398,5.094,0.0154012579825011
399,5.101,0.0151765352245174
400,5.109,0.0177647214716396
401,5.116,0.00831086751508548
402,5.124,0.0219375906155776
403,5.132,0.00983355792694031
404,5.139,0.00803965039338106
405,5.147,0.0105968403980227
406,5.154,0.0182296651088472
407,5.162,0.0217089933272839
408,5.169,0.0206318739010863
409,5.177,0.0128091972050688
410,5.184,0.0155988590283143
411,5.192,0.0102248854882567
412,5.199,0.00812489006020245
413,5.207,0.0204071511431027
414,5.214,0.0071097631189659
415,5.222,0.0170479333642779
416,5.230,0.00251457017123099
417,5.237,0.0153005201944394
418,5.245,0.0067843025729206
419,5.252,0.0136305976308022
420,5.260,0.013804951494755
421,5.267,0.0124333677649927
422,5.275,0.00654408169369668
423,5.282,0.0190626891255108
424,5.290,0.0138591949190959
425,5.297,0.0199732037483756
426,5.305,0.00437047018975125
427,5.312,0.0282569495512906
428,5.320,0.00548246038873937
429,5.327,0.0066680666636187
430,5.335,0.0221003208886003
431,5.343,0.0125534782046046
432,5.350,0.0126619650532864
433,5.358,0.00921750760764026
434,5.365,0.0135066126608802
435,5.373,0.0186132436095434
436,5.380,0.0161722895142036
437,5.388,0.0177763450625698
438,5.395,0.0113097539750744
439,5.403,0.0196671158538806
440,5.410,0.00714463389175647
441,5.418,0.0107053272467045
442,5.425,0.00922913119857045
443,5.433,0.0157189694679262
444,5.441,0.0165829897270703
445,5.448,0.00290202320223731
446,5.456,0.0229023486627834
447,5.463,0.0211471864323247
448,5.471,0.027788131383773
449,5.478,0.0282879457937711
450,5.486,0.0233595432393708
451,5.493,0.00298338833874864
452,5.501,0.0204187747340329
453,5.508,0.0168464577881546
454,5.516,0.014541112253667
455,5.523,0.0169975644702471
456,5.531,0.0171796673948201
457,5.538,0.0100234099121334
458,5.546,0.0200506943545769
459,5.554,0.00678817710323066
460,5.561,0.00939961053221323
461,5.569,0.01472321517824
462,5.576,0.0133671295697179
463,5.584,0.00239058520130897
464,5.591,0.0196981120963611
465,5.599,0.0176872308654383
466,5.606,0.00809389381772195
467,5.614,0.003312723415104
468,5.621,0.0240918294679727
469,5.629,0.0208798438409304
470,5.636,0.0172106636373006
471,5.644,0.0142776441925828
472,5.652,0.0221119444795305
473,5.659,0.0146805953448293
474,5.667,0.0206434974920165
475,5.674,0.00925237838043083
476,5.682,0.0133245097363072
477,5.689,0.0148626982694023
478,5.697,0.0202870407034907
479,5.704,0.0157770874225772
480,5.712,0.0257540029709898
481,5.719,0.0120304166127461
482,5.727,0.0303840666915153
483,5.734,0.0311163529201173
484,5.742,0.029686651235704
485,5.749,0.011224514308253
486,5.757,0.0209147146137209
487,5.765,0.0270480960945509
488,5.772,0.0235377716336337
489,5.780,0.0184815095790013
490,5.787,0.0199460820362052
491,5.795,0.0152462767700985
492,5.802,0.0176484855623377
493,5.810,0.0230147100417752
494,5.817,0.0277958804443931
495,5.825,0.0180514367145843
496,5.832,0.0127898245535185
497,5.840,0.011530602202748
498,5.847,0.0210619467655033
499,5.855,0.00449832968998333
500,5.862,0.00833798922725592
501,5.870,0.00822950237857416
502,5.878,0.0205040144008543
503,5.885,0.0168503323184647
504,5.893,0.0125302310227443
505,5.900,0.0169781918186968
506,5.908,0.0179003300324918
507,5.915,0.0040178879315355
508,5.923,0.00820238066640371
509,5.930,0.0112361378991832
510,5.938,0.0188418408978372
511,5.945,0
512,5.953,0.0137545826007242
513,5.960,0.0196244960204699
514,5.968,0.0211200647201543
515,5.976,0.0116739598242203
516,5.983,0.00708651593710552
517,5.991,0.0217671112819348
518,5.998,0.0103217487460083
519,6.006,0.0163117726053659
520,6.013,0.0146457245720388
521,6.021,0.025393671652154
522,6.028,0.0301051005091908
523,6.036,0.0216276281907726
524,6.043,0.0200468198242668
525,6.051,0.0180591857752044
526,6.058,0.0171370475614094
527,6.066,0.0281019683388881
528,6.073,0.0171060513189289
529,6.081,0.0186054945489233
530,6.089,0.0185473765942724
531,6.096,0.0184543878668308
532,6.104,0.0186752360945044
533,6.111,0.0155523646645935
534,6.119,0.0223134200556538
535,6.126,0.0253704244702936
536,6.134,0.0575561477559883
537,6.141,0.0443633720502232
538,6.149,0.0312635850718997
539,6.156,0.0217322405091443
540,6.164,0.0178073413050503
541,6.171,0.0218639745396864
542,6.179,0.0233827904212312
543,6.187,0.0232898016937897
544,6.194,0.0198840895512441
545,6.202,0.0163970122721873
546,6.209,0.0227667401019311
547,6.217,0.0194695148080674
548,6.224,0.014843325617852
549,6.232,0.0154245051643614
550,6.239,0.0245761457567306
551,6.247,0.021650875372633
552,6.254,0.0144326254049853
553,6.262,0.0107750687922857
554,6.269,0.006931534724703
555,6.277,0.0252580630913018
556,6.284,0.0238322359371985
557,6.292,0.0220886972976701
558,6.300,0.0202366718094599
559,6.307,0.0118134429153826
560,6.315,0.00475792322075756
561,6.322,0.0169239483943559
562,6.330,0.015215280527618
563,6.337,0.0277997549747032
564,6.345,0.0161606659232735
565,6.352,0.0109261754743781
566,6.360,0.0262809390931584
567,6.367,0.0154283796946715
568,6.375,0.0230418317539456
569,6.382,0.0144946178899463
570,6.390,0.0182219160482271
571,6.398,0.00626124098106207
572,6.405,0.00900828297089685
573,6.413,0.0135918523277016
574,6.420,0.0186093690792334
575,6.428,0.0166062369089307
576,6.435,0.0132586427210361
577,6.443,0.0262848136234685
578,6.450,0.00709039046741559
579,6.458,0.0278966182324548
580,6.465,0.020732611689148
581,6.473,0.0225575154651877
582,6.480,0.0108293122166265
583,6.488,0.0192099212772932
584,6.495,0.0123403790375512
585,6.503,0.00529648293385634
586,6.511,0.0080667721055515
587,6.518,0.0140335487830488
588,6.526,0.0193958987321762
589,6.533,0.00253394282278131
590,6.541,0.0318912589821299
591,6.548,0.0223482908284443
592,6.556,0.0233169234059601
593,6.563,0.0157693383619571
594,6.571,0.0218019820547254
595,6.578,0.0224606522074362
596,6.586,0.0151571625729671
597,6.593,0.014785207663201
598,6.601,0.0109223009440681
599,6.609,0.0124876111893336
600,6.616,0.0194927619899278
601,6.624,0.0209883306896122
602,6.631,0.0136693429339028
603,6.639,0.0194075223231064
604,6.646,0.0199615801574454
605,6.654,0.0275789067470296
606,6.661,0.0205776304767455
607,6.669,0.0159785629987005
608,6.676,0.0153818853309508
609,6.684,0.0172067891069905
610,6.691,0.0135918523277016
611,6.699,0.0124062460528222
612,6.706,0.0207636079316285
613,6.714,0.0107595706710454
614,6.722,0.0153082692550596
615,6.729,0.0145217396021167
616,6.737,0.0232278092088287
617,6.744,0.0178460866081509
618,6.752,0.0130300454327424
619,6.759,0.0177143525776088
620,6.767,0.0190006966405497
621,6.774,0.0192680392319441
622,6.782,0.0188379663675271
623,6.789,0.0166411076817213
624,6.797,0.0134523692365393
625,6.804,0.02514957624262
626,6.812,0.0143086404350633
627,6.819,0.0247892449237841
628,6.827,0.015149413512347
629,6.835,0.0198220970662831
630,6.842,0.0158816997409489
631,6.850,0.0210813194170537
632,6.857,0.0207519843406983
633,6.865,0.0207054899769775
634,6.872,0.0251921960760307
635,6.880,0.0190394419436504
636,6.887,0.0204497709765134
637,6.895,0.022758991041311
638,6.902,0.0250217167423879
639,6.910,0.0192331684591535
640,6.917,0.0212208025082159
641,6.925,0.0254944094402156
642,6.933,0.022390910661855
643,6.940,0.0207674824619386
644,6.948,0.0175748694864465
645,6.955,0.0205233870524046
646,6.963,0.0200971887182976
647,6.970,0.0242700578622356
648,6.978,0.0386561889035002
649,6.985,0.0152307786488583
650,6.993,0.0159669394077703
651,7.000,0.0255835236373471
652,7.008,0.0160405554836615
653,7.015,0.028892372522141
654,7.023,0.0808265767982276
655,7.030,0.122985341102025
656,7.038,0.113930563767407
657,7.046,0.0532902898846087
658,7.053,0.0432552563815451
659,7.061,0.0401905029062852
660,7.068,0.0314921823601934
661,7.076,0.0298687541602769
662,7.083,0.0267691299122264
663,7.091,0.038462462387997
664,7.098,0.0331698539844507
665,7.106,0.0193184081259749
666,7.113,0.0337781552431307
667,7.121,0.0318835099215098
668,7.128,0.0370986277188548
669,7.136,0.0386406907822599
670,7.144,0.0271798301250931
671,7.151,0.0312674596022097
672,7.159,0.0514188917448482
673,7.166,0.0956466552342192
674,7.174,0.0711053802502792
675,7.181,0.0334836909395659
676,7.189,0.0341462356225867
677,7.196,0.0453823735217698
678,7.204,0.0458008227952566
679,7.211,0.0312945813143802
680,7.219,0.0487609639521449
681,7.226,0.11903332018576
682,7.234,0.154644128265551
683,7.241,0.145167027127136
684,7.249,0.0979713734202571
685,7.257,0.0946082811111223
686,7.264,0.0596677667749727
687,7.272,0.0577421252108713
688,7.279,0.0392334939196996
689,7.287,0.0474242509951731
690,7.294,0.0462928881446347
691,7.302,0.0304654318280266
692,7.309,0.033925387394913
693,7.317,0.0459093096439384
694,7.324,0.0283344401574919
