#"+EI TIC Scan IPA-PEEK.d "
#Point,X(Minutes),Y(Counts)
0,2.095,0.302938436435649
1,2.102,0.294726677241884
2,2.110,0.295487130408411
3,2.117,0.267883815468208
4,2.125,0.278723110603033
5,2.132,0.259036453627793
6,2.140,0.244752419149073
7,2.147,0.207019187027895
8,2.155,0.226580993483257
9,2.162,0.221950174200525
10,2.170,0.215809798632001
11,2.178,0.198330725849142
12,2.185,0.213817865337591
13,2.193,0.186032949641202
14,2.200,0.191571772704862
15,2.208,0.170682010719893
16,2.215,0.163389605354317
17,2.223,0.182293109068506
18,2.230,0.170562835223646
19,2.238,0.179648548056554
20,2.245,0.142522543463871
21,2.253,0.147164712793864
22,2.260,0.156125575106895
23,2.268,0.161357946894491
24,2.275,0.121939232754965
25,2.283,0.134952061940386
26,2.291,0.138368426166127
27,2.298,0.139866632404657
28,2.306,0.132523151826404
29,2.313,0.130542568579256
30,2.321,0.134566160333492
31,2.328,0.133243879827516
32,2.336,0.131320046816675
33,2.343,0.12247268497626
34,2.351,0.115781832115549
35,2.358,0.122608885543399
36,2.366,0.11600315803715
37,2.373,0.109374730436378
38,2.381,0.105810815596236
39,2.389,0.117796465504482
40,2.396,0.109471205838101
41,2.404,0.140553310263984
42,2.411,0.193274279794101
43,2.419,0.397070053399702
44,2.426,0.330048024319973
45,2.434,0.12943593897125
46,2.441,0.10278035297739
47,2.449,0.11088428672217
48,2.456,0.101974499621816
49,2.464,0.114272275829757
50,2.471,0.096299475991018
51,2.479,0.111690140077743
52,2.486,0.118068866638761
53,2.494,0.110577835446107
54,2.502,0.0904031264386185
55,2.509,0.101072170864519
56,2.517,0.0938592158297747
57,2.524,0.108194325521171
58,2.532,0.088416868167839
59,2.539,0.0935357394828192
60,2.547,0.0853126302417923
61,2.554,0.108245400733849
62,2.562,0.0916856817791789
63,2.569,0.0839222494522467
64,2.577,0.0844273265553878
65,2.584,0.0843705763190798
66,2.592,0.0909082035417595
67,2.600,0.0959078993604929
68,2.607,0.0864930351569984
69,2.615,0.0808123365025692
70,2.622,0.0884338932387314
71,2.630,0.0864930351569984
72,2.637,0.0791609046260069
73,2.645,0.0823559429301464
74,2.652,0.0877472153794048
75,2.660,0.0882693175534383
76,2.667,0.0880366415845756
77,2.675,0.0712555967083047
78,2.682,0.0819246411342057
79,2.690,0.0850515791547756
80,2.697,0.0731170044592066
81,2.705,0.0742179590435815
82,2.713,0.0774356974422441
83,2.720,0.0663523762912949
84,2.728,0.0902272007060637
85,2.735,0.087122962780017
86,2.743,0.107961649552309
87,2.750,0.0795468062329012
88,2.758,0.076425543235962
89,2.765,0.0894383724213828
90,2.773,0.0781677754906171
91,2.780,0.0901534253988634
92,2.788,0.0953290469501515
93,2.795,0.0988702616957697
94,2.803,0.0903804263440953
95,2.810,0.0794162806893928
96,2.818,0.0985127352070294
97,2.826,0.0782302007505559
98,2.833,0.077271121756951
99,2.841,0.0712045214956275
100,2.848,0.0824410682846083
101,2.856,0.0854942309979779
102,2.863,0.0878436907811284
103,2.871,0.0712442466610431
104,2.878,0.0747173611230917
105,2.886,0.0663353512204025
106,2.893,0.0792630550513612
107,2.901,0.0851026543674528
108,2.908,0.0825715938281167
109,2.916,0.0869243369529391
110,2.924,0.0834398724436289
111,2.931,0.0777705238364613
112,2.939,0.082367292977408
113,2.946,0.0749273369974312
114,2.954,0.0966626775033891
115,2.961,0.570266099588039
116,2.969,9.37529226371699
117,2.976,45.2173057348611
118,2.984,100
119,2.991,93.9422698006114
120,2.999,1.48156139422165
121,3.006,0.153225638031557
122,3.014,0.120702077603451
123,3.021,0.125928774367416
124,3.029,0.112144141968207
125,3.037,0.0939273161133443
126,3.044,0.118216417253161
127,3.052,0.130724169335441
128,3.059,0.124912945137504
129,3.067,0.103938057798073
130,3.074,0.095147446193966
131,3.082,0.080057558359673
132,3.089,0.0653535721322744
133,3.097,0.0832979968528589
134,3.104,0.0805512854155525
135,3.112,0.0740590583819191
136,3.119,0.0785536770975114
137,3.127,0.0906641775256352
138,3.135,0.126064974934556
139,3.142,0.0839903497358163
140,3.150,0.0682081090185659
141,3.157,0.061534281228747
142,3.165,0.0839165744286159
143,3.172,0.0966286273616043
144,3.180,0.0889957205781805
145,3.187,0.0806874859826916
146,3.195,0.0712101965192583
147,3.202,0.0686053606727218
148,3.210,0.0565970106699524
149,3.217,0.0833490720655361
150,3.225,0.0605411520933573
151,3.232,0.0519718664108517
152,3.240,0.0611597296691143
153,3.248,0.0697403653988815
154,3.255,0.0741498587600119
155,3.263,0.103302455151423
156,3.270,0.0775208227967061
157,3.278,0.0654954477230443
158,3.285,0.067895982718872
159,3.293,0.0718855243313233
160,3.300,0.0605525021406189
161,3.308,0.0569942623241083
162,3.315,0.0866349107477683
163,3.323,0.0763574429523925
164,3.330,0.0664715517875416
165,3.338,0.0475283229079366
166,3.346,0.0562111090630581
167,3.353,0.0344246933444231
168,3.361,0.0359455996774771
169,3.368,0.0363825764970485
170,3.376,0.0552236549512992
171,3.383,0.034765194762271
172,3.391,0.0408658451653793
173,3.398,0.0483228262162484
174,3.406,0.0406501942674089
175,3.413,0.0399351412899283
176,3.421,0.0518867410563898
177,3.428,0.0448213366360457
178,3.436,0.0426024023964036
179,3.443,0.0391463130052474
180,3.451,0.0326654360188756
181,3.459,0.0376821569085014
182,3.466,0.034538193817039
183,3.474,0.0429258787433591
184,3.481,0.0333123887127866
185,3.489,0.111457464108881
186,3.496,0.0970202039921294
187,3.504,0.0524939685848852
188,3.511,0.0354348475507052
189,3.519,0.0354007974089204
190,3.526,0.0367174028912656
191,3.534,0.0329037870113691
192,3.541,0.02679746158463
193,3.549,0.0363825764970485
194,3.557,0.0330967378148163
195,3.564,0.0440154832804724
196,3.572,0.0441630338948731
197,3.579,0.0327846115151223
198,3.587,0.0258270325437635
199,3.594,0.0381872340116424
200,3.602,0.0497529321712096
201,3.609,0.0326597609952448
202,3.617,0.0343055178481763
203,3.624,0.0366493026076961
204,3.632,0.0386582609729987
205,3.639,0.0345268437697775
206,3.647,0.0371089795217907
207,3.654,0.0674703559465622
208,3.662,0.0480163749401852
209,3.670,0.0272060632860475
210,3.677,0.0319560580650258
211,3.685,0.0392825135723865
212,3.692,0.0385958357130599
213,3.700,0.0295214729274133
214,3.707,0.02679746158463
215,3.715,0.023534322996921
216,3.722,0.0297881990380608
217,3.730,0.026854211820938
218,3.737,0.0457236653933427
219,3.745,0.0363201512371098
220,3.752,0.0348276200222098
221,3.760,0.0273479388768175
222,3.767,0.0111003462218417
223,3.775,0.0201349838420727
224,3.783,0.0267009861829065
225,3.790,0.0273082137114019
226,3.798,0.0343849681790075
227,3.805,0.0293171720767045
228,3.813,0.0298335992271072
229,3.820,0.0293625722657509
230,3.828,0.0211054128829392
231,3.835,0.0214799644425719
232,3.843,0.0410871710869804
233,3.850,0.0199250079677332
234,3.858,0.0360761252209854
235,3.865,0.0378751077119485
236,3.873,0.0381872340116424
237,3.881,0.0302308508812631
238,3.888,0.0359342496302155
239,3.896,0.03696142890739
240,3.903,0.0446227108089678
241,3.911,0.0285737439810699
242,3.918,0.0528855452154103
243,3.926,0.0371316796163139
244,3.933,0.0429145286960975
245,3.941,0.0340501417847904
246,3.948,0.0313261304420072
247,3.956,0.036200975740863
248,3.963,0.0425116020183108
249,3.971,0.102644152410251
250,3.978,0.0754380891242031
251,3.986,0.0347765448095326
252,3.994,0.0335110145398645
253,4.001,0.0323816848373357
254,4.009,0.0365925523713881
255,4.016,0.0373473305142843
256,4.024,0.0331988882401706
257,4.031,0.0378978078064717
258,4.039,0.0304805519210182
259,4.046,0.0287553447372555
260,4.054,0.043970083091426
261,4.061,0.0280346167361441
262,4.069,0.0387717614456147
263,4.076,0.0412290466777504
264,4.084,0.0389136370363846
265,4.092,0.0364109516152025
266,4.099,0.039129287934355
267,4.107,0.0314226058437307
268,4.114,0.0456498900861423
269,4.122,0.0349411204948257
270,4.129,0.0396570651320192
271,4.137,0.0367457780094196
272,4.144,0.043970083091426
273,4.152,0.0365358021350801
274,4.159,0.0328243366805379
275,4.167,0.0336585651542653
276,4.174,0.0282843177758992
277,4.182,0.0366436275840653
278,4.189,0.028346743035838
279,4.197,0.0236080983041213
280,4.205,0.0270755377425392
281,4.212,0.0263604847650586
282,4.220,0.0399862165026055
283,4.227,0.0286929194773167
284,4.235,0.0427840031525891
285,4.242,0.0259689081345335
286,4.250,0.0392541384542325
287,4.257,0.0308607785042817
288,4.265,0.0331932132165398
289,4.272,0.0352305466999965
290,4.280,0.04115527137055
291,4.287,0.0297314488017528
292,4.295,0.0178990245315381
293,4.303,0.0201803840311191
294,4.310,0.0350148958020261
295,4.318,0.030486226944649
296,4.325,0.0310877794495136
297,4.333,0.021224588379186
298,4.340,0.0402018674005759
299,4.348,0.0246920278176038
300,4.355,0.0305656772754802
301,4.363,0.0167640198053785
302,4.370,0.0264569601667821
303,4.378,0.0272968636641403
304,4.385,0.0223312179871917
305,4.393,0.0227227946177168
306,4.400,0.0336869402724193
307,4.408,0.043209629924899
308,4.416,0.134333484364629
309,4.423,0.164734585954816
310,4.431,0.0546334524936962
311,4.438,0.0373870556796998
312,4.446,0.0276770902474038
313,4.453,0.0356164483068908
314,4.461,0.0302195008340015
315,4.468,0.0217239904586963
316,4.476,0.0208557118431841
317,4.483,0.0126155775312648
318,4.491,0.0181884507367089
319,4.498,0.0234662227133514
320,4.506,0.0218034407895274
321,4.513,0.0308721285515433
322,4.521,0.0132795552960683
323,4.529,0.022717119594086
324,4.536,0.0279721914762053
325,4.544,0.0191191546121598
326,4.551,0.0376821569085014
327,4.559,0.0186140775090187
328,4.566,0.0151636631414933
329,4.574,0.0325746356407828
330,4.581,0.0243628764470175
331,4.589,0.0201576839365959
332,4.596,0.0258610826855483
333,4.604,0.0236478234695369
334,4.611,0.0307472780316657
335,4.619,0.0252254800388989
336,4.627,0.0250552293299749
337,4.634,0.0319106578759794
338,4.642,0.019675306927978
339,4.649,0.0155836148901724
340,4.657,0.0268144866555224
341,4.664,0.0306905277953577
342,4.672,0.0204244100472434
343,4.679,0.0229554705865795
344,4.687,0.0420519251042161
345,4.694,0.0229895207283643
346,4.702,0.0212472884737092
347,4.709,0.0135349313594542
348,4.717,0.0169910207506104
349,4.724,0.0283410680122072
350,4.732,0.03532702210172
351,4.740,0.0210656877175237
352,4.747,0.0358264241812303
353,4.755,0.0348162699749482
354,4.762,0.00953971472337211
355,4.770,0.0370068290964364
356,4.777,0.00660572750624934
357,4.785,0.0238521243202457
358,4.792,0.0276600651765114
359,4.800,0.0351170462273805
360,4.807,0.0265647856157673
361,4.815,0.0313431555128996
362,4.822,0.0220758419238058
363,4.830,0.0268201616791532
364,4.838,0.0408431450708561
365,4.845,0.0317744573088402
366,4.853,0.0286134691464855
367,4.860,0.0304238016847102
368,4.868,0.0250155041645593
369,4.875,0.0344700935334695
370,4.883,0.021985041545713
371,4.890,0.0242720760689247
372,4.898,0.00453434388100792
373,4.905,0.0246523026521882
374,4.913,0.0257589322601939
375,4.920,0.021899916191251
376,4.928,0.0376424317430858
377,4.935,0.0247828281956966
378,4.943,0.0201236337948111
379,4.951,0.00804150848484133
380,4.958,0.0130128291854207
381,4.966,0.0169115704197792
382,4.973,0.0173371971920891
383,4.981,0.013313605437853
384,4.988,0.00833093469001205
385,4.996,0.0209294871503845
386,5.003,0.0243004511870787
387,5.011,0.0232846219571658
388,5.018,0.0160659918987903
389,5.026,0.0198682577314252
390,5.033,0.0212983636863864
391,5.041,0.0225865940505776
392,5.049,0.0475964231915062
393,5.056,0.0599963498248007
394,5.064,0.0616080565359474
395,5.071,0.0400032415734979
396,5.079,0.0260370084181031
397,5.086,0.0132511801779143
398,5.094,0.0200895836530263
399,5.101,0.0207932865832453
400,5.109,0.0231881465554423
401,5.116,0.0267293613010605
402,5.124,0.0301514005504319
403,5.131,0.0244877269668951
404,5.139,0.0101015420628211
405,5.146,0.0293966224075357
406,5.154,0.0268996120099844
407,5.162,0.0107484947567322
408,5.169,0.0301911257158475
409,5.177,0.0171499214122728
410,5.184,0.0195107312426849
411,5.192,0.0117132487739679
412,5.199,0.0232108466499654
413,5.207,0.0206741110869986
414,5.214,0.0170364209396568
415,5.222,0.0431755797831142
416,5.229,0.0257135320711475
417,5.237,0.0309913040477901
418,5.244,0.0306054024408958
419,5.252,0.0249644289518822
420,5.259,0.0241075003836316
421,5.267,0.0242153258326168
422,5.275,0.0277508655546042
423,5.282,0.00514724643313415
424,5.290,0.0261107837253034
425,5.297,0.0279948915707285
426,5.305,0.0100107416847284
427,5.312,0.0282843177758992
428,5.320,0.0217296654823271
429,5.327,0.0110379209619029
430,5.335,0.0095737648651569
431,5.342,0.0235172979260286
432,5.350,0.019283730297453
433,5.357,0.0338685410286048
434,5.365,0.0162192175368218
435,5.373,0.0387150112093067
436,5.380,0.0294987728328901
437,5.388,0.0149990874562002
438,5.395,0.0253049303697301
439,5.403,0.0234037974534126
440,5.410,0.0107938949457786
441,5.418,0.0215877898915571
442,5.425,0.0319276829468718
443,5.433,0.0328583868223227
444,5.440,0.0192326550847758
445,5.448,0.0108392951348249
446,5.455,0.023449197642459
447,5.463,0.0245728523213571
448,5.470,0.0305883773700034
449,5.478,0.0238294242257225
450,5.486,0.0226660443814088
451,5.493,0.0276827652710346
452,5.501,0.0249984790936669
453,5.508,0.0332556384764786
454,5.516,0.0164972936947309
455,5.523,0.0112649219071348
456,5.531,0.0226717194050396
457,5.538,0.0185062520600336
458,5.546,0.0262526593160734
459,5.553,0.0157538655990964
460,5.561,0.0176606735390446
461,5.568,0.0104477185042999
462,5.576,0.0224617435307001
463,5.584,0.0145280604948439
464,5.591,0.0180409001223081
465,5.599,0.0223255429635609
466,5.606,0.0271436380261087
467,5.614,0.00803583346121053
468,5.621,0.015736840528204
469,5.629,0.0230008707756259
470,5.636,0.0189489039032359
471,5.644,0.0240734502418468
472,5.651,0.0296746985654448
473,5.659,0.0268144866555224
474,5.666,0.0164745936002078
475,5.674,0.0187729781706811
476,5.681,0.0175244729719055
477,5.689,0.0309232037642205
478,5.697,0.00670787793160371
479,5.704,0.0182225008784937
480,5.712,0.0167242946399629
481,5.719,0.00980644083401963
482,5.727,0.0212756635918632
483,5.734,0.0216842652932807
484,5.742,0.0217807406950043
485,5.749,0.0217693906477427
486,5.757,0.0149820623853078
487,5.764,0.0146756111092447
488,5.772,0.0138754327773021
489,5.779,0.0220361167583902
490,5.787,0.0286361692410087
491,5.795,0.0276033149402034
492,5.802,0.0243458513761251
493,5.810,0.0356277983541523
494,5.817,0.0195220812899465
495,5.825,0.0201066087239187
496,5.832,0.0286248191937471
497,5.840,0.0247487780539118
498,5.847,0.0203222596218891
499,5.855,0.0223141929162993
500,5.862,0.0235002728551362
501,5.870,0.0333521138782022
502,5.877,0.0186821777925883
503,5.885,0.0177514739171374
504,5.892,0.0140513585098568
505,5.900,0.0152431134723245
506,5.908,0.0269223121045076
507,5.915,0.0262583343397042
508,5.923,0.0220928669946982
509,5.930,0.0153282388267865
510,5.938,0.0217069653878039
511,5.945,0.010583919071439
512,5.953,0.029896024487046
513,5.960,0.0390611876507854
514,5.968,0.0364904019460337
515,5.975,0.0221439422073753
516,5.983,0.0233867723825202
517,5.990,0.0308210533388661
518,5.998,0.0257078570475167
519,6.006,0.0165370188601465
520,6.013,0.0183984266110484
521,6.021,0.0287383196663631
522,6.028,0.0220474668056518
523,6.036,0.0194142558409613
524,6.043,0.0110265709146413
525,6.051,0.0409339454489488
526,6.058,0.01542471422851
527,6.066,0.0258837827800715
528,6.073,0.0230519459883031
529,6.081,0.0175414980427978
530,6.088,0.0150104375034618
531,6.096,0.0196242317153009
532,6.103,0.0150104375034618
533,6.111,0.0328300117041687
534,6.119,0.0216104899860803
535,6.126,0.019703682046132
536,6.134,0.0242153258326168
537,6.141,0.00715620479843678
538,6.149,0.0280516418070365
539,6.156,0.0462003673783298
540,6.164,0.0326370609007216
541,6.171,0.0245842023686187
542,6.179,0.0359058745120615
543,6.186,0.0375289312704698
544,6.194,0.0292433967695041
545,6.201,0.0168775202779944
546,6.209,0.00221325921601138
547,6.216,0.0193177804392377
548,6.224,0.0102547677008527
549,6.232,0.0180238750514157
550,6.239,0.00820608417013448
551,6.247,0.0131830798943447
552,6.254,0.0224901186488541
553,6.262,0.000873953639142953
554,6.269,0.00810393374478011
555,6.277,0.017144246388642
556,6.284,0.0268598868445688
557,6.292,0.00720728001111397
558,6.299,0.024941728857359
559,6.307,0.00983481595217362
560,6.314,0.0407182945509785
561,6.322,0.0151466380706009
562,6.330,0.0245217771086799
563,6.337,0.0117245988212295
564,6.345,0.023982649863754
565,6.352,0.0228760202557483
566,6.360,0.0101072170864519
567,6.367,0.0152714885904785
568,6.375,0.016832120088948
569,6.382,0.00681002835695808
570,6.390,0.0159070912371279
571,6.397,0.0208443617959225
572,6.405,0.0231711214845499
573,6.412,0.0400145916207595
574,6.420,0.0238634743675073
575,6.427,0.0174733977592283
576,6.435,0.0176549985154138
577,6.443,0.0147153362746602
578,6.450,0.0303840765192946
579,6.458,0.0261391588434574
580,6.465,0.0212983636863864
581,6.473,0.0178025491298146
582,6.480,0.0179160496024305
583,6.488,0.0239883248873848
584,6.495,0.0056806986544292
585,6.503,0.0245217771086799
586,6.510,0.00834228473727365
587,6.518,0.0167923949235325
588,6.525,0.0211451380483548
589,6.533,0.0159468164025435
590,6.541,0.0178138991770762
591,6.548,0.0250495543063441
592,6.556,0.0181600756185549
593,6.563,0.00348446450931022
594,6.571,0.0201009337002879
595,6.578,0.0174563726883359
596,6.586,0.0213437638754328
597,6.593,0.0275352146566338
598,6.601,0.0308721285515433
599,6.608,0.0315020561745619
600,6.616,0.022518493767008
601,6.623,0.0152260884014321
602,6.631,0.0231370713427651
603,6.638,0.0265534355685057
604,6.646,0.0325803106644136
605,6.654,0.0391803631470321
606,6.661,0.0356561734723063
607,6.669,0.0312864052765916
608,6.676,0.0319844331831798
609,6.684,0.0128879786655432
610,6.691,0.0239202246038152
611,6.699,0.0322227841756733
612,6.706,0.00616307566304706
613,6.714,0.0221439422073753
614,6.721,0.0120821253099698
615,6.729,0.0200612085348723
616,6.736,0.0146983112037679
617,6.744,0.0213607889463252
618,6.752,0.0209692123158001
619,6.759,0.0144996853766899
620,6.767,0.00783720763413259
621,6.774,0.0185289521545568
622,6.782,0.00804150848484133
623,6.789,0.0135746565248698
624,6.797,0.0263604847650586
625,6.804,0.022688744475932
626,6.812,0.0206684360633678
627,6.819,0.010754169780363
628,6.827,0.0224220183652845
629,6.834,0.020015808345826
630,6.842,0.0144032099749663
631,6.849,0.0161454422296214
632,6.857,0.0158673660717123
633,6.865,0.0122864261606785
634,6.872,0.0160035666388515
635,6.880,0.00800178331942574
636,6.887,0.0240507501473236
637,6.895,0.0175187979482747
638,6.902,0.0355426729996904
639,6.910,0.0452412883847248
640,6.917,0.0195447813844697
641,6.925,0.0304351517319718
642,6.932,0.0224447184598077
643,6.940,0.0177741740116606
644,6.947,0.00983481595217362
645,6.955,0.0112535718598732
646,6.962,0.0189205287850819
647,6.970,0.0189262038087127
648,6.978,0.0116508235140291
649,6.985,0.016468918576577
650,6.993,0.00309856290241593
651,7.000,0.0175131229246439
652,7.008,0.0181998007839705
653,7.015,0.0297030736835988
654,7.023,0.0366833527494808
655,7.030,0.0561543588267501
656,7.038,0.0505758105976753
657,7.045,0.0246806777703422
658,7.053,0.0189489039032359
659,7.060,0.0310537293077288
660,7.068,0.0300889752904931
661,7.076,0.0117643239866451
662,7.083,0.011315997119812
663,7.091,0.00758750659437746
664,7.098,0.00714485475117518
665,7.106,0.0252595301806837
666,7.113,0.0438395575479176
667,7.121,0.0124226267278177
668,7.128,0.0153339138504173
669,7.136,0.0194483059827461
670,7.143,0.0116962237030755
671,7.151,0.0180749502640929
672,7.158,0.0371146545454215
673,7.166,0.0329889123658311
674,7.173,0.0221212421128522
675,7.181,0.0355937482123676
676,7.189,0.0375346062941006
677,7.196,0.0131490297525599
678,7.204,0.0171215462941188
679,7.211,0.0267520613955836
680,7.219,0.0373303054433919
681,7.226,0.0500877585654267
682,7.234,0.0715733980316294
683,7.241,0.0563302845593049
684,7.249,0.0361782756463398
685,7.256,0.0304408267556026
686,7.264,0.0151863632360165
687,7.271,0.0334088641145102
688,7.279,0.0215934649151879
689,7.287,0.0257532572365631
690,7.294,0.0259632331109027
691,7.302,0.0309402288351129
692,7.309,0.0189545789268666
693,7.317,0.027586289869311
694,7.324,0.0238294242257225
