#"+EI TIC Scan IPA-ABS.d "
#Point,X(Minutes),Y(Counts)
0,2.095,0.293566511473679
1,2.102,0.301934213902958
2,2.110,0.261966399066779
3,2.117,0.248564320052651
4,2.125,0.242759656340066
5,2.132,0.225914210463259
6,2.140,0.231902275872924
7,2.147,0.201329212969673
8,2.155,0.210393841847856
9,2.163,0.199848244265751
10,2.170,0.194369118565483
11,2.178,0.18362177911659
12,2.185,0.172200438430927
13,2.193,0.155483373742076
14,2.200,0.155148665644905
15,2.208,0.172544316612952
16,2.215,0.174355408371618
17,2.223,0.171948261097442
18,2.230,0.127587975616194
19,2.238,0.146547126051849
20,2.245,0.129454087883984
21,2.253,0.147633781107048
22,2.260,0.145854784645371
23,2.268,0.126313333821488
24,2.276,0.14337886173479
25,2.283,0.129802551108436
26,2.291,0.123855751080614
27,2.298,0.109142349932364
28,2.306,0.130426116878509
29,2.313,0.119068966786824
30,2.321,0.116565533621681
31,2.328,0.119444940265838
32,2.336,0.111402775848876
33,2.343,0.106253773203352
34,2.351,0.114809462372139
35,2.358,0.117184514349326
36,2.366,0.0972625050040007
37,2.374,0.108848907217036
38,2.381,0.0981795134894012
39,2.389,0.112063021958364
40,2.396,0.105235893784558
41,2.404,0.115987818275878
42,2.411,0.165038602159949
43,2.419,0.290366151859631
44,2.426,0.347958869785208
45,2.434,0.138101477901311
46,2.441,0.0948095073055544
47,2.449,0.0775651627375986
48,2.456,0.0961299995245311
49,2.464,0.0846444682448902
50,2.471,0.0994954206659508
51,2.479,0.0874138338707997
52,2.487,0.0976614036951499
53,2.494,0.0953918076937837
54,2.502,0.112562791582907
55,2.509,0.0883170872289191
56,2.517,0.0845986178206202
57,2.524,0.0845802776509122
58,2.532,0.0807655223516463
59,2.539,0.0889727482959805
60,2.547,0.0737779176928947
61,2.554,0.0826774850437062
62,2.562,0.104580232717496
63,2.569,0.0688856774232832
64,2.577,0.0893991572416917
65,2.585,0.0691470248416223
66,2.592,0.0718613699584077
67,2.600,0.0728654942499212
68,2.607,0.0829709277590344
69,2.615,0.0993899646901298
70,2.622,0.086111681821531
71,2.630,0.078216238762233
72,2.637,0.0811598360003685
73,2.645,0.099880564229819
74,2.652,0.0898714166116729
75,2.660,0.0952267461664116
76,2.667,0.076345541452016
77,2.675,0.0701419790482818
78,2.682,0.0697155701025706
79,2.690,0.0751350902512874
80,2.698,0.082145620122174
81,2.705,0.0757540709789327
82,2.713,0.0750800697421634
83,2.720,0.0812148565094925
84,2.728,0.0767627803128732
85,2.735,0.0755798393667066
86,2.743,0.0849287408753644
87,2.750,0.0760429286518338
88,2.758,0.0694679778115125
89,2.765,0.0791194921203524
90,2.773,0.0690828342476443
91,2.780,0.0934064843228917
92,2.788,0.0889131427444294
93,2.796,0.0811735911276495
94,2.803,0.0648279148753861
95,2.811,0.0737045570140626
96,2.818,0.0849470810450724
97,2.826,0.0975330225071938
98,2.833,0.0692295556053084
99,2.841,0.0703070405756539
100,2.848,0.0690507389506553
101,2.856,0.0736128561655226
102,2.863,0.0741584762143359
103,2.871,0.068422588138156
104,2.878,0.0563501714278588
105,2.886,0.0833606563653296
106,2.893,0.0669370343918072
107,2.901,0.0805087599757341
108,2.909,0.0679182334711857
109,2.916,0.0839521268384129
110,2.924,0.0732919031956324
111,2.931,0.0832643704743625
112,2.939,0.0808984885820293
113,2.946,0.0744794291842261
114,2.954,0.0795871664479067
115,2.961,0.331067573484131
116,2.969,6.15452078993495
117,2.976,35.5837898392617
118,2.984,90.1227182020545
119,2.991,100
120,2.999,2.42099410230578
121,3.007,0.139664977368918
122,3.014,0.116648064385367
123,3.022,0.104667348523609
124,3.029,0.0840346576020989
125,3.037,0.0766389841673441
126,3.044,0.0798622689935268
127,3.052,0.111434871145865
128,3.059,0.0865059954702532
129,3.067,0.0715633422006526
130,3.074,0.106478440282275
131,3.082,0.0805637804848582
132,3.089,0.05682243079784
133,3.097,0.0758962072941698
134,3.104,0.0668590886705482
135,3.112,0.0534111592321503
136,3.120,0.0699127269269317
137,3.127,0.0663776592157129
138,3.135,0.0922877339707031
139,3.142,0.102388582437389
140,3.150,0.0562401304096107
141,3.157,0.05486461768151
142,3.165,0.0835990785715337
143,3.172,0.0796742822540197
144,3.180,0.060614260884971
145,3.187,0.0765151880218151
146,3.195,0.0650342417846012
147,3.202,0.0664051694702749
148,3.210,0.0323979097891985
149,3.217,0.0633010957471943
150,3.225,0.0663318087914429
151,3.233,0.0561438445186437
152,3.240,0.035268146348502
153,3.248,0.0525537562983008
154,3.255,0.0629113671408991
155,3.263,0.0663639040884319
156,3.270,0.0563776816824208
157,3.278,0.0613570377581453
158,3.285,0.0420448390556115
159,3.293,0.0545620048813279
160,3.300,0.0428563915651909
161,3.308,0.0412745519278751
162,3.315,0.0608022476244781
163,3.323,0.0624391077709179
164,3.331,0.0510085970004011
165,3.338,0.0482713266714807
166,3.346,0.0397569028845373
167,3.353,0.0397569028845373
168,3.361,0.0464739900400957
169,3.368,0.0310453222732329
170,3.376,0.0481154352289626
171,3.383,0.0299265719210443
172,3.391,0.0415496544734952
173,3.398,0.0237734449840071
174,3.406,0.0337963477294343
175,3.413,0.0284135079201335
176,3.421,0.0413708378188421
177,3.428,0.0278357925743312
178,3.436,0.0351443502029729
179,3.444,0.0307335393881967
180,3.451,0.0399953250907414
181,3.459,0.0383126145200316
182,3.466,0.0323291341527935
183,3.474,0.0263227285734204
184,3.481,0.0385602068110897
185,3.489,0.0933835591107567
186,3.496,0.0940804855596611
187,3.504,0.0438054953475804
188,3.511,0.0421502950314325
189,3.519,0.0142182165661343
190,3.526,0.0306968590487807
191,3.534,0.0334799798019711
192,3.542,0.0299036467089093
193,3.549,0.0300641231938544
194,3.557,0.025538686318403
195,3.564,0.0298257009876502
196,3.572,0.0307106141760617
197,3.579,0.0247317188512506
198,3.587,0.0400320054301574
199,3.594,0.0310178120186708
200,3.602,0.0209811541459627
201,3.609,0.0346124852814407
202,3.617,0.0250755970332758
203,3.624,0.0348050570633748
204,3.632,0.0345941451117327
205,3.639,0.0389040849931149
206,3.647,0.033264482807902
207,3.655,0.0360155082641034
208,3.662,0.0320494465647464
209,3.670,0.0409811092125469
210,3.677,0.0384914311746847
211,3.685,0.0368087206039748
212,3.692,0.0213296173704149
213,3.700,0.0172351744831018
214,3.707,0.0290554138599138
215,3.715,0.0162264651491613
216,3.722,0.0331223464926649
217,3.730,0.0248280047422177
218,3.737,0.0324300050861876
219,3.745,0.0252314884757939
220,3.753,0.0183906051747064
221,3.760,0.0208711131277147
222,3.768,0.0128060234986175
223,3.775,0.0248692701240607
224,3.783,0.0327968084803478
225,3.790,0.0422282407526916
226,3.798,0.0289041074598228
227,3.805,0.029435972381355
228,3.813,0.0275744451559921
229,3.820,0.0233562061231499
230,3.828,0.0207610721094666
231,3.835,0.0289041074598228
232,3.843,0.0285097938111006
233,3.850,0.0277807720652072
234,3.858,0.0275194246468681
235,3.866,0.0223062314073664
236,3.873,0.0250526718211408
237,3.881,0.0357495758033373
238,3.888,0.0166574591372995
239,3.896,0.029435972381355
240,3.903,0.0165336629917704
241,3.911,0.0386060572353597
242,3.918,0.0413341574794261
243,3.926,0.0194635051026249
244,3.933,0.0278816429986012
245,3.941,0.0301970894242374
246,3.948,0.029426802296501
247,3.956,0.0289041074598228
248,3.963,0.0534019891472963
249,3.971,0.0820722594433419
250,3.979,0.0554606731970203
251,3.986,0.029376366829804
252,3.994,0.0249609709726007
253,4.001,0.02750108447716
254,4.009,0.0148692925907686
255,4.016,0.0390095409689359
256,4.024,0.0244107658813605
257,4.031,0.0249472158453197
258,4.039,0.0335808507353652
259,4.046,0.0282897117746045
260,4.054,0.0236542338809051
261,4.061,0.0236404787536241
262,4.069,0.0378770354894663
263,4.077,0.0263869191673985
264,4.084,0.021595549831181
265,4.092,0.0350801596089949
266,4.099,0.0231177839169458
267,4.107,0.0237780300264341
268,4.114,0.0163594313795444
269,4.122,0.0173314603740689
270,4.129,0.0307702197276127
271,4.137,0.0303071304424855
272,4.144,0.0271847165496969
273,4.152,0.0297110749269752
274,4.159,0.0359650727974064
275,4.167,0.0310865876550759
276,4.174,0.0269554644283468
277,4.182,0.0285969096172136
278,4.190,0.025538686318403
279,4.197,0.0125584312075594
280,4.205,0.0349976288453089
281,4.212,0.0365152778886467
282,4.220,0.0213662977098309
283,4.227,0
284,4.235,0.0200091251514382
285,4.242,0.0141081755478862
286,4.250,0.0276157105378351
287,4.257,0.0211874810551778
288,4.265,0.0161760296824643
289,4.272,0.0207564870670396
290,4.280,0.0153094566637608
291,4.288,0.0239981120629303
292,4.295,0.0164465471856574
293,4.303,0.0164694723977924
294,4.310,0.0270517503193138
295,4.318,0.0300503680665733
296,4.325,0.0242136090569994
297,4.333,0.0143099174146743
298,4.340,0.0225033882317275
299,4.348,0.0246904534694076
300,4.355,0.0262677080642964
301,4.363,0.0166024386281755
302,4.370,0.0350893296938489
303,4.378,0.0237367646445911
304,4.385,0.0033333258444307
305,4.393,0.0171113783375727
306,4.401,0.0248921953361957
307,4.408,0.0263639939552635
308,4.416,0.112177648019039
309,4.423,0.141031320012165
310,4.431,0.0418981176979474
311,4.438,0.0203484182910364
312,4.446,0.0266849469251536
313,4.453,0.0138468281295471
314,4.461,0.0177578693197801
315,4.468,0.0276478058348241
316,4.476,0.0198119683270771
317,4.483,0.0172718548225178
318,4.491,0.0150389391605677
319,4.499,0.0208940383398497
320,4.506,0.0242777996509774
321,4.514,0.0239201663416712
322,4.521,0.0272626622709559
323,4.529,0.0318201944433963
324,4.536,0.0341493959963134
325,4.544,0.0204171939274414
326,4.551,0.00531406417289571
327,4.559,0.0279916840168493
328,4.566,0.0306601787093647
329,4.574,0.019582716205727
330,4.581,0.0151948306030858
331,4.589,0.0270609204041678
332,4.596,0.0277395066833642
333,4.604,0.0223474967892094
334,4.612,0.0123979547226143
335,4.619,0.00778540204104998
336,4.627,0.031302084649145
337,4.634,0.0239385065113792
338,4.642,0.0344886891359116
339,4.649,0.00808801484123213
340,4.657,0.0271847165496969
341,4.664,0.0209398887641197
342,4.672,0.0199311794301792
343,4.679,0.0353552621546151
344,4.687,0.0210361746550867
345,4.694,0.00499311120300555
346,4.702,0.0139660392326491
347,4.709,0.0243924257116525
348,4.717,0.0166941394767155
349,4.725,0.0199265943877522
350,4.732,0.0284180929625605
351,4.740,0.0199174243028982
352,4.747,0.0222053604739723
353,4.755,0.0187803337810016
354,4.762,0.0110407821642216
355,4.770,0.0163961117189604
356,4.777,0.0403942237818906
357,4.785,0.0147271562755315
358,4.792,0.0155570489548189
359,4.800,0.0150802045424107
360,4.807,0.0190875316236108
361,4.815,0.0187207282294506
362,4.823,0.0259605102216873
363,4.830,0.0125492611227054
364,4.838,0.0141356858024482
365,4.845,0.0152040006879398
366,4.853,0.025460740597144
367,4.860,0.0236909142203211
368,4.868,0.0250205765241518
369,4.875,0.0285189638959546
370,4.883,0.0166528740948725
371,4.890,0.0127234927349315
372,4.898,0.0363548014037016
373,4.905,0.0399907400483144
374,4.913,0.0437183795414673
375,4.920,0.0219027476737902
376,4.928,0.0142228016085613
377,4.936,0.0113663201765388
378,4.943,0.0199953700241572
379,4.951,0.0126317918863915
380,4.958,0.0173039501195068
381,4.966,0.023502927480814
382,4.973,0.00962400405427792
383,4.981,0.0132920379958798
384,4.988,0.0303942462485985
385,4.996,0.0436175086080733
386,5.003,0.0247225487663966
387,5.011,0.0120999269648592
388,5.018,0.0131544867230697
389,5.026,0.0120173962011731
390,5.034,0.0198394785816391
391,5.041,0.0101879642727992
392,5.049,0.0115405517887649
393,5.056,0.0146721357664075
394,5.064,0.0203346631637554
395,5.071,0.0113112996674148
396,5.079,0.0207243917700506
397,5.086,0.00898209811449759
398,5.094,0.0221595100497023
399,5.101,0.0210315896126597
400,5.109,0.0342502669297075
401,5.116,0.0199128392604712
402,5.124,0.0174827667741599
403,5.131,0.0241998539297184
404,5.139,0.00492433556660051
405,5.147,0.0203025678667664
406,5.154,0.0190783615387567
407,5.162,0.0023475417226252
408,5.169,0.00846398832024632
409,5.177,0.0307610496427587
410,5.184,0.0230123279411248
411,5.192,0.0147821767846555
412,5.199,0.0129894251956976
413,5.207,0.000641905939780328
414,5.214,0.0199403495150332
415,5.222,0.0267949879434017
416,5.229,0.0281246502472324
417,5.237,0.0250526718211408
418,5.245,0.0251076923302648
419,5.252,0.0140073046144922
420,5.260,0.0031361690200696
421,5.267,0.0197661179028071
422,5.275,0.0165703433311865
423,5.282,0.00491975052417351
424,5.290,0.019651491842132
425,5.297,0.0211141203763458
426,5.305,0.0168958813435036
427,5.312,0.0233928864625659
428,5.320,0.0142915772449663
429,5.327,0.0297202450118292
430,5.335,0.00394313648722201
431,5.342,0.0103255155456093
432,5.350,0.017606562919689
433,5.358,0.0223658369589174
434,5.365,0.01179272912225
435,5.373,0.00856485925364038
436,5.380,0.0172214193558208
437,5.388,0.0180329718654002
438,5.395,0.0256074619548081
439,5.403,0.0206005956245215
440,5.410,0.0143328426268093
441,5.418,0.0200137101938652
442,5.425,0.0151077147969727
443,5.433,0.0201925268485183
444,5.440,0.017606562919689
445,5.448,0.0295139181026141
446,5.456,0.0220999044981513
447,5.463,0.0356211946153812
448,5.471,0.0420127437586225
449,5.478,0.0305501376911166
450,5.486,0.033324088359453
451,5.493,0.0153369669183228
452,5.501,0.0227693206924936
453,5.508,0.0360842839005084
454,5.516,0.0202888127394854
455,5.523,0.0305638928183976
456,5.531,0.0282438613503344
457,5.538,0.0168454458768066
458,5.546,0.0207519020246126
459,5.553,0.00324621003831766
460,5.561,0.021558869491765
461,5.569,0.00350755745665679
462,5.576,0.0140990054630322
463,5.584,0.0161897848097453
464,5.591,0.0361301343247785
465,5.599,0.0343740630752366
466,5.606,0.0210132494429517
467,5.614,0.0252406585606479
468,5.621,0.0395414058904682
469,5.629,0.0486702253626299
470,5.636,0.0322695286012425
471,5.644,0.0177945496591961
472,5.651,0.0157679609064611
473,5.659,0.0383355397321666
474,5.666,0.0122879137043663
475,5.674,0.0223291566195014
476,5.682,0.02554327136083
477,5.689,0.0289774681386548
478,5.697,0.0269508793859198
479,5.704,0.0193855593813659
480,5.712,0.0290783390720489
481,5.719,0.0291700399205889
482,5.727,0.0503345957636317
483,5.734,0.0437688150081644
484,5.742,0.0307060291336347
485,5.749,0.0261530820036214
486,5.757,0.0281796707563564
487,5.764,0.0335533404808031
488,5.772,0.0182438838170423
489,5.780,0.0348233972330828
490,5.787,0.0200228802787192
491,5.795,0.0158963420944171
492,5.802,0.021572624619046
493,5.810,0.0200641456605622
494,5.817,0.0261164016642053
495,5.825,0.00181567680109293
496,5.832,0.0194726751874789
497,5.840,0.0160843288339242
498,5.847,0.0307564646003317
499,5.855,0.0299036467089093
500,5.862,0.0194772602299059
501,5.870,0.0194176546783549
502,5.877,0.0139614541902221
503,5.885,0.0182805641564583
504,5.893,0.0185281564475165
505,5.900,0.0259971905611033
506,5.908,0.0115267966614839
507,5.915,0.0109353261884006
508,5.923,0.00775330674406096
509,5.930,0.0350067989301629
510,5.938,0.0229252121350117
511,5.945,0.00748278924086782
512,5.953,0.0177624543622071
513,5.960,0.0147775917422285
514,5.968,0.00868407035674244
515,5.975,0.0185144013202355
516,5.983,0.0090004382842056
517,5.991,0.0106189582609374
518,5.998,0.0239522616386602
519,6.006,0.0135167050748029
520,6.013,0.0108344552550065
521,6.021,0.0245620722814515
522,6.028,0.0327188627590887
523,6.036,0.0334066191231391
524,6.043,0.031256234224875
525,6.051,0.0346904310026997
526,6.058,0.0209903242308167
527,6.066,0.0220127886920382
528,6.073,0.0257633533973262
529,6.081,0.0194451649329169
530,6.088,0.0141631960570102
531,6.096,0.0142136315237073
532,6.104,0.015634994676078
533,6.111,0.0263731640401175
534,6.119,0.03132500986128
535,6.126,0.0379733213804334
536,6.134,0.0670929258343253
537,6.141,0.0669828848160772
538,6.149,0.0385418666413817
539,6.156,0.0422511659648266
540,6.164,0.0339568242143793
541,6.171,0.0270150699798978
542,6.179,0.0199953700241572
543,6.186,0.0315588470250571
544,6.194,0.029344271532815
545,6.202,0.043058133431979
546,6.209,0.0268729336646607
547,6.217,0.0262952183188584
548,6.224,0.0213433724976959
549,6.232,0.0220173737344652
550,6.239,0.0393396640236801
551,6.247,0.0208527729580067
552,6.254,0.0258137888640232
553,6.262,0.0222512108982424
554,6.269,0.0238101253234232
555,6.277,0.0210636849096488
556,6.284,0.0151077147969727
557,6.292,0.0264832050583655
558,6.299,0.013768882408288
559,6.307,0.0179504411017142
560,6.315,0.0189362252235197
561,6.322,0.0186840478900345
562,6.330,0.0201833567636643
563,6.337,0.0146858908936885
564,6.345,0.0244520312632035
565,6.352,0.0203392482061824
566,6.360,0.0259421700519793
567,6.367,0.0130627858745297
568,6.375,0.0192388380237018
569,6.382,0.0162127100218803
570,6.390,0.00834477721714426
571,6.397,0.0188445243749796
572,6.405,0.0142136315237073
573,6.412,0.0082255661140422
574,6.420,0.0163777715492524
575,6.428,0.0229573074320007
576,6.435,0.0247775692755207
577,6.443,0.0184272855141224
578,6.450,0.0209307186792657
579,6.458,0.0181430128836483
580,6.465,0.0154928583608409
581,6.473,0.00969736473310995
582,6.480,0.00351214249908379
583,6.488,0.0164006967613874
584,6.495,0.0183355846655824
585,6.503,0.0297615103936722
586,6.510,0.0222053604739723
587,6.518,0.0291654548781619
588,6.526,0.0216414002554511
589,6.533,0.0275194246468681
590,6.541,0.0186565376354725
591,6.548,0.0318522897403853
592,6.556,0.0539292690264015
593,6.563,0.0531406417289571
594,6.571,0.0414717087522362
595,6.578,0.0309261111701308
596,6.586,0.0452360285848051
597,6.593,0.0516138226007654
598,6.601,0.0277899421500612
599,6.608,0.0545253245419118
600,6.616,0.0658549643790346
601,6.623,0.052897634480326
602,6.631,0.0608297578790401
603,6.639,0.0429389223288769
604,6.646,0.0345253694753276
605,6.654,0.033291993062464
606,6.661,0.0268133281131097
607,6.669,0.0245987526208676
608,6.676,0.0356532899123702
609,6.684,0.0369095915373689
610,6.691,0.0374185312467661
611,6.699,0.00680878800409848
612,6.706,0.0323199640679395
613,6.714,0.0283493173261555
614,6.721,0.0181017475018052
615,6.729,0.0126088666742564
616,6.737,0.0285235489383816
617,6.744,0.0250526718211408
618,6.752,0.0197707029452341
619,6.759,0.0174781817317329
620,6.767,0.0209307186792657
621,6.774,0.0135488003717919
622,6.782,0.0224254425104685
623,6.789,0.017583637707554
624,6.797,0.0157863010761691
625,6.804,0.0123200090013553
626,6.812,0.0341127156568974
627,6.819,0.0257725234821802
628,6.827,0.0227876608622016
629,6.834,0.0115359667463379
630,6.842,0.0260934764520703
631,6.850,0.0138055627477041
632,6.857,0.0172443445679558
633,6.865,0.00987618138776305
634,6.872,0.0299907625150223
635,6.880,0.042998527880428
636,6.887,0.0432094398320701
637,6.895,0.0356991403366402
638,6.902,0.0214304883038089
639,6.910,0.0342823622266965
640,6.917,0.0425446086801547
641,6.925,0.0280787998229623
642,6.932,0.0242319492267074
643,6.940,0.0271113558708648
644,6.948,0.0365015227613656
645,6.955,0.0483401023078857
646,6.963,0.0374001910770581
647,6.970,0.0331636118745079
648,6.978,0.0363593864461286
649,6.985,0.0189408102659467
650,6.993,0.0257037478457751
651,7.000,0.0413479126067071
652,7.008,0.0250618419059948
653,7.015,0.0361255492823515
654,7.023,0.0912469293397736
655,7.030,0.160618621260319
656,7.038,0.129192740465645
657,7.045,0.0894174974113997
658,7.053,0.0560934090519467
659,7.061,0.0569278867736611
660,7.068,0.0241815137600104
661,7.076,0.0320769568193084
662,7.083,0.0346950160451267
663,7.091,0.0382942743503236
664,7.098,0.0431910996623621
665,7.106,0.0408343878548829
666,7.113,0.0107244142367585
667,7.121,0.0457541383790564
668,7.128,0.021572624619046
669,7.136,0.048977423205239
670,7.143,0.0381613081199405
671,7.151,0.0458595943548774
672,7.159,0.0836449289958037
673,7.166,0.118867224920036
674,7.174,0.0970653481796396
675,7.181,0.0672121369374273
676,7.189,0.0423016014315236
677,7.196,0.037184694082989
678,7.204,0.0497202000784134
679,7.211,0.0517376187462944
680,7.219,0.0675835253740145
681,7.226,0.119848423999414
682,7.234,0.232805529231044
683,7.241,0.1826726753342
684,7.249,0.109114839677802
685,7.256,0.0843005900628651
686,7.264,0.0669599596039422
687,7.272,0.0648829353845101
688,7.279,0.0632323201107893
689,7.287,0.0477257066226674
690,7.294,0.0456624375305163
691,7.302,0.0435395628868142
692,7.309,0.0477211215802404
693,7.317,0.0519301905282285
694,7.324,0.0452451986696591
695,7.332,0.0422832612618156
