#"+EI TIC Scan MEOH-SLA.d "
#Point,X(Minutes),Y(Counts)
0,2.095,0.0940933561776285
1,2.102,0.0746748310776642
2,2.110,0.0834996579298463
3,2.117,0.085405240206179
4,2.125,0.059940746156269
5,2.132,0.0463142983706044
6,2.140,0.0644996355260019
7,2.147,0.0637770208707016
8,2.155,0.062610793357514
9,2.162,0.0510238487109405
10,2.170,0.0879329964907433
11,2.178,0.472062671169346
12,2.185,0.485150645486003
13,2.193,0.149737474653733
14,2.200,0.0808212406746788
15,2.208,0.0687125626669425
16,2.215,0.0697197591556044
17,2.223,0.0755620567934385
18,2.230,0.0713574997064204
19,2.238,0.043616350989618
20,2.245,0.0439455731105656
21,2.253,0.0434601099830665
22,2.260,0.0471513037628442
23,2.268,0.0374057709791984
24,2.275,0.0389486509188938
25,2.283,0.0324674391649833
26,2.291,0.0297527516761521
27,2.298,0.0374448312308362
28,2.306,0.0194296851718608
29,2.313,0.0337257372713172
30,2.321,0.0241782957638348
31,2.328,0.0160705035310049
32,2.336,0.0313402719034337
33,2.343,0.0237932732834045
34,2.351,0.0245828483700841
35,2.358,0.0281791815387412
36,2.366,0.0345766927534277
37,2.373,0.0163216051486768
38,2.381,0.0166759374313917
39,2.389,0.0358712610934253
40,2.396,0.0847886462338956
41,2.404,0.109817897479841
42,2.411,0.0588833293440726
43,2.419,0.0300205934016689
44,2.426,0.0270073739896055
45,2.434,0.0205596424513846
46,2.441,0.24412657273662
47,2.449,1.4981001512106
48,2.456,1.18323546275782
49,2.464,0.161689911654918
50,2.471,0.0337117871814466
51,2.479,0.0252217624861605
52,2.486,0.083072785179804
53,2.494,1.02568035774057
54,2.502,1.40711487505616
55,2.509,0.510975051854576
56,2.517,0.243858731011103
57,2.524,0.168717966931758
58,2.532,0.189258079257324
59,2.539,0.178307258708853
60,2.547,0.140321163991035
61,2.554,0.109282214028807
62,2.562,0.0807849704410151
63,2.569,0.0765385630843849
64,2.577,0.0746441408799488
65,2.584,0.0728110990709435
66,2.592,0.0700657213843969
67,2.599,0.0526643792797306
68,2.607,0.0507866971831393
69,2.615,0.0432229584552653
70,2.622,0.0454577628525456
71,2.630,0.0400200178209608
72,2.637,0.0618825986662654
73,2.645,0.0672143230148332
74,2.652,0.165682427375902
75,2.660,0.214078079155209
76,2.667,0.0993078997712827
77,2.675,0.0613887654848439
78,2.682,0.120673857417192
79,2.690,0.14514510506831
80,2.697,0.068807423278063
81,2.705,0.0493749480882281
82,2.713,0.0470676032236202
83,2.720,0.0514228212812415
84,2.728,0.0559119602016212
85,2.735,0.0560626211722244
86,2.743,0.0437530618703505
87,2.750,0.0380139948975593
88,2.758,0.0314853528380886
89,2.765,0.0363288240411831
90,2.773,0.0436944714928937
91,2.780,0.03596891172252
92,2.788,0.0206210228468155
93,2.795,0.0256067849665908
94,2.803,0.0358070906800203
95,2.810,0.0490513060032287
96,2.818,0.022964637945087
97,2.826,0.0221053124090541
98,2.833,0.0240081046674127
99,2.841,0.0211064859743146
100,2.848,0.0309775695667964
101,2.856,0.0251101617671952
102,2.863,0.026452160412753
103,2.871,0.0285418838753785
104,2.878,0.0375620119857498
105,2.886,0.0638635114278997
106,2.893,0.0465319197725867
107,2.901,0.0230873987359489
108,2.908,0.0480552695864633
109,2.916,0.0999998242288676
110,2.924,0.0703363531278877
111,2.931,0.0428686261725504
112,2.939,0.0375564319498016
113,2.946,0.0558143095725266
114,2.954,0.256863004788536
115,2.961,4.26823645725973
116,2.969,23.0609047252665
117,2.976,47.7826597202287
118,2.984,10.4319664858577
119,2.991,0.12627621350925
120,2.999,0.038742189588808
121,3.006,0.0312398312563649
122,3.014,0.0236258722049565
123,3.021,0.0190195525296633
124,3.029,0.0323921086796817
125,3.037,0.300540736173585
126,3.044,0.508441715534064
127,3.052,0.116293529197803
128,3.059,0.0407928527997956
129,3.067,0.0344037116390315
130,3.074,0.0382567264613089
131,3.082,0.0320684665946823
132,3.089,0.0285558339652492
133,3.097,0.0130851842986828
134,3.104,0.00887783719369055
135,3.112,0.00694993477356479
136,3.119,0.0251464320008589
137,3.127,0.0286869648100334
138,3.135,0.0277802089684402
139,3.142,0.0116148448263148
140,3.150,0.00950838125584456
141,3.157,0.01928739425518
142,3.165,0.0199151482993599
143,3.172,0.0144383430161372
144,3.180,0.0171056001994082
145,3.187,0.0107666793621785
146,3.195,0.0137101483248886
147,3.202,0.00967020229834427
148,3.210,0.012585771081313
149,3.217,0.0125383407757528
150,3.225,0.021471978328926
151,3.232,0.00955023152545656
152,3.240,0.020821904140953
153,3.248,0.0240945952246108
154,3.255,0.0232492197784486
155,3.263,0.0226382058421135
156,3.270,0.0192343839136715
157,3.278,0.0109201303507558
158,3.285,0.0126304113688992
159,3.293,0.0174989927337609
160,3.300,0.104011870075671
161,3.308,0.0837423894935958
162,3.315,0.0667260698693599
163,3.323,0.0529294309872732
164,3.330,0.0492549773153404
165,3.338,0.0971874861109418
166,3.345,0.0906225738178073
167,3.353,0.0739019960988295
168,3.361,0.0479269287596531
169,3.368,0.0318647952825706
170,3.376,0.0220383519776749
171,3.383,0.0178254248367344
172,3.391,0.0308045884524002
173,3.398,0.0205931226670742
174,3.406,0.025400323636505
175,3.413,0.032333518302225
176,3.421,0.0162211645016081
177,3.428,0.0243875471118948
178,3.436,0.0256346851463321
179,3.443,0.0247223492687907
180,3.451,0.0147564050651884
181,3.459,0.0269069333425367
182,3.466,0.0175910633269073
183,3.474,0.018656850193026
184,3.481,0.022627045770217
185,3.489,0.0423692129551806
186,3.496,0.0375424818599309
187,3.504,0.0120026573247193
188,3.511,0.0153032485881184
189,3.519,0.0191981136800078
190,3.526,0.0205401123255656
191,3.534,0.0167484778987192
192,3.541,0.00769207955468411
193,3.549,0.0163439252924699
194,3.556,0.00785390059718382
195,3.564,0.0172618412059596
196,3.572,0.0107834194700233
197,3.579,0.341274998595923
198,3.587,0.906870232330098
199,3.594,0.328786878143705
200,3.602,0.164697551031033
201,3.609,0.116873852936423
202,3.617,0.0932089204798284
203,3.624,0.0927011372085362
204,3.632,0.0716113913420664
205,3.639,0.0578705528194624
206,3.647,0.0505579157092604
207,3.654,0.04571723452414
208,3.662,0.0442189948720307
209,3.670,0.0360302921179509
210,3.677,0.0319931361093808
211,3.685,0.0519864049120164
212,3.692,0.0652892106126815
213,3.700,0.0468444017856896
214,3.707,0.0236454023307754
215,3.715,0.0519054943907665
216,3.722,0.0383739072162225
217,3.730,0.030821328560245
218,3.737,0.01441323285437
219,3.745,0.0175492130572953
220,3.752,0.0121198380796329
221,3.760,0.0136794581271731
222,3.767,0.0174152921945369
223,3.775,0.016765218006564
224,3.783,0.0153729990374717
225,3.790,0.0140616905896293
226,3.798,0.0273393861285273
227,3.805,0.0523797974463691
228,3.813,0.0564671737784736
229,3.820,0.0240220547572834
230,3.828,0.039183012428721
231,3.835,0.0218625808453046
232,3.843,0.0360916725133818
233,3.850,0.0307515781108917
234,3.858,0.0279085497952503
235,3.865,0.0235700718454738
236,3.873,0.0154176393250578
237,3.881,0.0256207350564615
238,3.888,0.0279587701187847
239,3.896,0.0271385048343897
240,3.903,0.0176747638661313
241,3.911,0.033658776839938
242,3.918,0.030171254372272
243,3.926,0.0127978124473471
244,3.933,0.0129791636156658
245,3.941,0.0111293816988157
246,3.948,0.0109982508540315
247,3.956,0.0158333520032036
248,3.963,0.0205987027030224
249,3.971,0.0340828595720062
250,3.978,0.0186317400312588
251,3.986,0.00967857235226666
252,3.994,0.00982086326894744
253,4.001,0.197644873287567
254,4.009,0.722461204311816
255,4.016,0.313274378207527
256,4.024,0.088516110247337
257,4.031,0.0638105010863911
258,4.039,0.0541709889857623
259,4.046,0.0395903550529444
260,4.054,0.0223703641165967
261,4.061,0.0315383631795971
262,4.069,0.0247614095204286
263,4.076,0.0253556833489188
264,4.084,0.0164415759215646
265,4.092,0.0201829900248766
266,4.099,0.011176812004376
267,4.107,0.0163048650408321
268,4.114,0.0136487679294576
269,4.122,0.0202583205101782
270,4.129,0.027124554744519
271,4.137,0.0193599347225075
272,4.144,0.0171139702533306
273,4.152,0.0223871042244415
274,4.159,0.0224959149254327
275,4.167,0.015400899217213
276,4.174,0.0108866501350662
277,4.182,0.0135483272823889
278,4.189,0.0309245592252879
279,4.197,0.195828571586407
280,4.205,0.19668789712244
281,4.212,0.0575524907704113
282,4.220,0.0269627337020193
283,4.227,0.018068156400484
284,4.235,0.0278108991661557
285,4.242,0.0209641950576338
286,4.250,0.0163941456160043
287,4.257,0.0149628663952742
288,4.265,0.0159142625244535
289,4.272,0.0102142558033002
290,4.280,0.0328245614656723
291,4.287,0.0572232686494636
292,4.295,0.0210534756328061
293,4.302,0.00931028997968114
294,4.310,0.00525639386326618
295,4.318,0.0105434779242478
296,4.325,0.00704758540265944
297,4.333,0.0163327652205734
298,4.340,0.00641425132253129
299,4.348,0.00972879267580105
300,4.355,0.00115785745926511
301,4.363,0.00205903326491
302,4.370,0.0102282058931708
303,4.378,0
304,4.385,0.0415628977606562
305,4.393,0.873035684357789
306,4.400,5.99918871857348
307,4.408,5.53703061121231
308,4.416,0.727751078390772
309,4.423,0.216923897488825
310,4.431,0.122880761634731
311,4.438,0.0860497343582037
312,4.446,0.0621922906613941
313,4.453,0.0492521872973662
314,4.461,0.0425421940695768
315,4.468,0.0376345524530773
316,4.476,0.0320517264868375
317,4.483,0.0482366207547819
318,4.491,0.0652501503610437
319,4.498,0.0843282932681637
320,4.506,0.398623818054223
321,4.513,1.23025842569386
322,4.521,2.54797833484083
323,4.529,4.15700960070295
324,4.536,5.80235016048044
325,4.544,7.75812486016779
326,4.551,1.04000152000179
327,4.559,0.534157311201646
328,4.566,0.375385758347671
329,4.574,0.305822240198618
330,4.581,0.270160230453253
331,4.589,0.217448420867962
332,4.596,0.187112555435216
333,4.604,0.171075532119901
334,4.611,0.147223668459039
335,4.619,0.137606476502204
336,4.627,0.117465336746939
337,4.634,0.113492351151774
338,4.642,0.108353138043421
339,4.649,0.112560485148413
340,4.657,0.100998650663607
341,4.664,0.091707890809745
342,4.672,0.0913228683293146
343,4.679,0.0692733562797432
344,4.687,0.0781121332217958
345,4.694,0.0562244422147241
346,4.702,0.0641871535128991
347,4.709,0.0545560114661927
348,4.717,0.05470946245477
349,4.724,0.0489062250685738
350,4.732,0.0518357439414132
351,4.740,0.0839321107158369
352,4.747,0.246046105102823
353,4.755,0.329537392978747
354,4.762,0.122802641131455
355,4.770,0.0683721804740983
356,4.777,0.0525750987045584
357,4.785,0.0479883091550841
358,4.792,0.0288543658884814
359,4.800,0.042776555579404
360,4.807,0.0390490915659626
361,4.815,0.0441799346203928
362,4.822,0.0531303122814108
363,4.830,0.0522040263139987
364,4.838,0.0537106360200304
365,4.845,0.0673398738236691
366,4.853,0.331124913206028
367,4.860,0.751390900685599
368,4.868,0.27417506631803
369,4.875,0.0984039339476637
370,4.883,0.0593408922918304
371,4.890,0.0657663036862582
372,4.898,0.0584787767378234
373,4.905,0.070593034781508
374,4.913,0.128890460351013
375,4.920,0.355654751234604
376,4.928,0.246182815983555
377,4.935,0.0689385541228472
378,4.943,0.0415489476707856
379,4.951,0.0285279337855078
380,4.958,0.131934369960792
381,4.966,0.460135344329929
382,4.973,0.346651363232077
383,4.981,0.0654649817450519
384,4.988,0.0450392601564257
385,4.996,0.0339349886193772
386,5.003,0.0342809508481697
387,5.011,0.125179736445416
388,5.018,0.800319445897966
389,5.026,0.943143256011798
390,5.033,0.221789688835712
391,5.041,0.104728904695023
392,5.048,0.102608491034682
393,5.056,0.0810583922024801
394,5.064,0.0652975806666039
395,5.071,0.0690668949496573
396,5.079,0.0536632057144702
397,5.086,0.0521063756849041
398,5.094,0.0382929966949726
399,5.101,0.0393169332914793
400,5.109,0.0336559868219639
401,5.116,0.0406561419190631
402,5.124,0.0363399841130796
403,5.131,0.0345432125377381
404,5.139,0.0316918141681744
405,5.146,0.122258587626499
406,5.154,0.427062471264559
407,5.162,0.297786988433116
408,5.169,0.0873777829138909
409,5.177,0.0624796625127298
410,5.184,0.0622229808591096
411,5.192,0.0858795432617816
412,5.199,0.167816791126113
413,5.207,0.355325529113656
414,5.214,0.264242602330117
415,5.222,0.0791723400519663
416,5.229,0.0476451369442657
417,5.237,0.067546335153755
418,5.244,0.620879439891616
419,5.252,1.5557726127539
420,5.259,0.690247656782479
421,5.267,0.175757182280495
422,5.275,0.109823477515789
423,5.282,0.0856842420035923
424,5.290,0.146208101916455
425,5.297,0.839948861202549
426,5.305,1.12123289331867
427,5.312,0.337516844384767
428,5.320,0.145011184205552
429,5.327,0.0996678120899458
430,5.335,0.0763488418621439
431,5.342,0.0895316767899214
432,5.350,0.10811598651562
433,5.357,0.107502182561311
434,5.365,0.0576250312377387
435,5.373,0.0484988824443504
436,5.380,0.0392137026264364
437,5.388,0.0569135766543349
438,5.395,0.0650492690669061
439,5.403,0.0482003505211182
440,5.410,0.0430611374127656
441,5.418,0.0455330933378472
442,5.425,0.0296857912447729
443,5.433,0.0390239814041954
444,5.440,0.0242257260693951
445,5.448,0.0294737498787388
446,5.455,0.0308185385422708
447,5.463,0.0251548020547813
448,5.470,0.0425617241953958
449,5.478,0.039771706221263
450,5.486,0.0420706810319484
451,5.493,0.0431364678980671
452,5.501,0.0273393861285273
453,5.508,0.0304753663314525
454,5.516,0.0471708338886632
455,5.523,0.110099689295228
456,5.531,0.135181950882682
457,5.538,0.0978124501371475
458,5.546,0.0658583742794046
459,5.553,0.0537803864693837
460,5.561,0.040717522314494
461,5.568,0.0441436643867291
462,5.576,0.0342307305246353
463,5.584,0.0298476122872726
464,5.591,0.0435912408278508
465,5.599,0.0483175312760317
466,5.606,0.466248273711254
467,5.614,4.1644896388916
468,5.621,16.0081187291033
469,5.629,34.0188565596796
470,5.636,57.046010437513
471,5.644,72.6339189794962
472,5.651,90.4098879576212
473,5.659,100
474,5.666,2.96798206063083
475,5.674,1.53541106157868
476,5.681,1.15215187250801
477,5.689,0.940933561776285
478,5.697,0.912639989500604
479,5.704,0.796778913088792
480,5.712,0.602325820363632
481,5.719,0.540259080511074
482,5.727,0.478432282204292
483,5.734,0.435424155133035
484,5.742,0.403179917405982
485,5.749,0.362269883851273
486,5.757,0.333086295841844
487,5.764,0.321968074214925
488,5.772,0.292887716870538
489,5.779,0.293016057697349
490,5.787,0.261918517357664
491,5.795,0.241478845679167
492,5.802,0.248080028205966
493,5.810,0.226069576408032
494,5.817,0.213313614230297
495,5.825,0.208433872793539
496,5.832,0.200287020309071
497,5.840,0.205289522536691
498,5.847,0.186652202469484
499,5.855,0.178432809517689
500,5.862,0.165587566764781
501,5.870,0.159223535765784
502,5.877,0.172813713317785
503,5.885,0.176817389110666
504,5.892,0.158601361757553
505,5.900,0.14303864149784
506,5.908,0.153144086600149
507,5.915,0.136688560588714
508,5.923,0.123037002641282
509,5.930,0.13517358082876
510,5.938,0.116268419036036
511,5.945,0.126493834911233
512,5.953,0.128354776899979
513,5.960,0.123795887530246
514,5.968,0.130039947756355
515,5.975,0.126616595702094
516,5.983,0.119019376758531
517,5.990,0.116273999071984
518,5.998,0.117122164536121
519,6.005,0.112845066981775
520,6.013,0.114332146561988
521,6.021,0.108922301710144
522,6.028,0.117696908238792
523,6.036,0.104483383113299
524,6.043,0.0871573714939344
525,6.051,0.0929466587902599
526,6.058,0.113988974351169
527,6.066,0.140181663092328
528,6.073,0.129964617271054
529,6.081,0.106366645245839
530,6.088,0.0957701569800823
531,6.096,0.0889792532310431
532,6.103,0.0869592802177709
533,6.111,0.0817168364443754
534,6.119,0.0690613149137091
535,6.126,0.0993664901487395
536,6.134,0.127049048488085
537,6.141,0.132179891542515
538,6.149,0.0927039272265104
539,6.156,0.0898441588030243
540,6.164,0.0763209416824026
541,6.171,0.0834382775344154
542,6.179,0.0805924592007999
543,6.186,0.0742423782916737
544,6.194,0.066140166094792
545,6.201,0.0749817330548189
546,6.209,0.0774453189259781
547,6.216,0.0723674862130564
548,6.224,0.0817447366241167
549,6.232,0.0781121332217958
550,6.239,0.0642038936207439
551,6.247,0.0618602785224723
552,6.254,0.0743846692083544
553,6.262,0.0639639520749685
554,6.269,0.0744432595858112
555,6.277,0.105136247319246
556,6.284,0.0892526749925081
557,6.292,0.0773309281890387
558,6.299,0.0744488396217595
559,6.307,0.0819065576666164
560,6.314,0.0760642600287824
561,6.322,0.0741112474468894
562,6.330,0.0678169668972458
563,6.337,0.0720410541100829
564,6.345,0.070888776686766
565,6.352,0.0595808338376058
566,6.360,0.0667651301209978
567,6.367,0.0615952268149297
568,6.375,0.0614836260959644
569,6.382,0.0608419219619139
570,6.390,0.0601444174683807
571,6.397,0.0529071108434802
572,6.405,0.0573125492246359
573,6.412,0.054352340154081
574,6.420,0.0656798131290601
575,6.427,0.069228715992157
576,6.435,0.134682537665312
577,6.443,1.10365578008163
578,6.450,2.66833134019099
579,6.458,0.988891180733654
580,6.465,0.422514741966722
581,6.473,0.294849099506354
582,6.480,0.225623173532171
583,6.488,0.18769566919181
584,6.495,0.168349684559173
585,6.503,0.146336442743265
586,6.510,0.11728398557862
587,6.518,0.126783996780542
588,6.525,0.115445363733667
589,6.533,0.11438794692147
590,6.541,0.108799540919282
591,6.548,0.100013774318738
592,6.556,0.286024272654172
593,6.563,1.30587628284678
594,6.571,1.46738484333338
595,6.578,0.664961723882914
596,6.586,0.427701385380635
597,6.593,0.366360050201351
598,6.601,0.234989263871335
599,6.608,0.230458274681343
600,6.616,0.213628886261374
601,6.623,0.164867742127455
602,6.631,0.131075044424759
603,6.638,0.119091917225858
604,6.646,0.108660040020576
605,6.654,0.104380152448256
606,6.661,0.102284848949682
607,6.669,0.093451652043578
608,6.676,0.0872299119612618
609,6.684,0.0840046511831643
610,6.691,0.0721163845953845
611,6.699,0.0804390082122226
612,6.706,0.0651497097139749
613,6.714,0.082548261800667
614,6.721,0.0678337070050906
615,6.729,0.0743037586871046
616,6.736,0.0642931741959161
617,6.744,0.0681601391080642
618,6.751,0.0634868590013917
619,6.759,0.0745716004126213
620,6.767,0.0626972839147122
621,6.774,0.0540454381769264
622,6.782,0.0563360429336894
623,6.789,0.0528038801784373
624,6.797,0.0620695298705323
625,6.804,0.0618519084685499
626,6.812,0.0635593994687192
627,6.819,0.0476395569083175
628,6.827,0.0481612902694803
629,6.834,0.0482784710243939
630,6.842,0.0435856607919025
631,6.849,0.0508285474527513
632,6.857,0.16060459466298
633,6.865,0.239629063762317
634,6.872,0.158908263734707
635,6.880,0.109603066095833
636,6.887,0.0913842487247456
637,6.895,0.09046912282923
638,6.902,0.0760586799928341
639,6.910,0.0793481111843367
640,6.917,0.107030669523682
641,6.925,0.172930894072699
642,6.932,0.163796375225388
643,6.940,0.102962823317397
644,6.947,0.0690278346980195
645,6.955,0.0509568882795614
646,6.962,0.0490094557336167
647,6.970,0.0655124120506121
648,6.978,0.0668265105164287
649,6.985,0.075656917404559
650,6.993,0.101213482047615
651,7.000,0.107845354772129
652,7.008,0.0848835068450161
653,7.015,0.0761507505859805
654,7.023,0.11714169466194
655,7.030,0.137634376681945
656,7.038,0.131049934262991
657,7.045,0.0904607527753076
658,7.053,0.0884184596182424
659,7.060,0.10875769064967
660,7.068,0.11752671714237
661,7.076,0.105415249116659
662,7.083,0.0863287361556169
663,7.091,0.0755927469911539
664,7.098,0.0727134484418489
665,7.106,0.0900589901870325
666,7.113,0.116901753116164
667,7.121,0.126672396061577
668,7.128,0.103699388062568
669,7.136,0.100270455972359
670,7.143,0.0934014317200436
671,7.151,0.0903463620383682
672,7.158,0.113707182535782
673,7.166,0.140647596094008
674,7.173,0.118522753559135
675,7.181,0.104424792735842
676,7.189,0.0701829021393104
677,7.196,0.073639734409261
678,7.204,0.0632469174556163
679,7.211,0.0738266656135279
680,7.219,0.0813067038021779
681,7.226,0.137288414453152
682,7.234,0.190064394451848
683,7.241,0.153272427426959
684,7.249,0.126864907301792
685,7.256,0.154597685964672
686,7.264,0.134763448186562
687,7.271,0.104661944263644
688,7.279,0.0746999412394314
689,7.287,0.0781037631678735
690,7.294,0.0639527920030719
691,7.302,0.066474968251688
692,7.309,0.124741703623477
693,7.317,0.187759839605215
694,7.324,0.203068668229281
695,7.332,0.19792387508498
696,7.339,0.125118356049985
697,7.347,0.107892785077689
698,7.354,0.107610993262302
699,7.362,0.116179138460864
700,7.369,0.0869509101638485
701,7.377,0.0840213912910091
702,7.384,0.0694435473761653
703,7.392,0.0684112407257361
