#"+EI TIC Scan MEOH-Blank.d "
#Point,X(Minutes),Y(Counts)
0,2.095,0.178686205590482
1,2.102,0.165816637571711
2,2.110,0.160844431587927
3,2.117,0.150178518414612
4,2.125,0.138707208546512
5,2.132,0.113572120030059
6,2.140,0.121458295999841
7,2.147,0.128874657230997
8,2.155,0.10037256308773
9,2.162,0.11714047483057
10,2.170,0.0944215763984763
11,2.177,0.110853906185156
12,2.185,0.103549405606053
13,2.193,0.108225180861895
14,2.200,0.110311382022696
15,2.208,0.103717196584134
16,2.215,0.0912503269127556
17,2.223,0.115999496179623
18,2.230,0.0917201416513809
19,2.238,0.0898520687620851
20,2.245,0.0807857629131377
21,2.253,0.0618757196834701
22,2.260,0.0617470799336085
23,2.268,0.0656845748858965
24,2.275,0.0686768473283314
25,2.283,0.0931463649650648
26,2.291,0.0794658072189048
27,2.298,0.0742698799310133
28,2.306,0.0673736707319065
29,2.313,0.0631173729212655
30,2.321,0.0595993554141786
31,2.328,0.0603208566199246
32,2.336,0.0673848567971118
33,2.343,0.0582570275895349
34,2.351,0.0535812523336928
35,2.358,0.0761323597877064
36,2.366,0.0762218483093493
37,2.373,0.0567357227216055
38,2.381,0.0541293695287557
39,2.388,0.0890410790346963
40,2.396,0.18637662541917
41,2.404,0.259925004144437
42,2.411,0.175503770039556
43,2.419,0.077334861797283
44,2.426,0.0613891258470368
45,2.434,0.0868877614826637
46,2.441,0.0704050944025601
47,2.449,0.0637437925727659
48,2.456,0.077950095383578
49,2.464,0.0586653189695307
50,2.471,0.0497388389356504
51,2.479,0.0770775822975596
52,2.486,0.082821626780514
53,2.494,0.048497185697855
54,2.502,0.0572111304928334
55,2.509,0.0572390956558468
56,2.517,0.0494256291099002
57,2.524,0.0448617145061117
58,2.532,0.0791861555887707
59,2.539,0.0695213952513363
60,2.547,0.0622224877048364
61,2.554,0.0608633807823847
62,2.562,0.0480273709592297
63,2.569,0.060717961934715
64,2.577,0.0534973568446526
65,2.584,0.0768258958304389
66,2.592,0.0667584371456115
67,2.599,0.0561540473309265
68,2.607,0.0659138892226065
69,2.615,0.0552759412123055
70,2.622,0.0790910740345251
71,2.630,0.0509133757822136
72,2.637,0.0398671363919168
73,2.645,0.0508015151301599
74,2.652,0.049973746304963
75,2.660,0.0512545507709772
76,2.667,0.0583856673393966
77,2.675,0.043854968637629
78,2.682,0.0489614074038776
79,2.690,0.0612940442927912
80,2.697,0.0524738318783618
81,2.705,0.0711321886409087
82,2.713,0.0438214104420129
83,2.720,0.0464948800260949
84,2.728,0.0750752766257995
85,2.735,0.0734197389754056
86,2.743,0.0684810911872375
87,2.750,0.0737944721597853
88,2.758,0.0576138288402265
89,2.765,0.064744945408646
90,2.773,0.0974977443299513
91,2.780,0.0905567908700231
92,2.788,0.0638109089639981
93,2.795,0.0580333062854277
94,2.803,0.0533463449643802
95,2.810,0.0970558947543395
96,2.818,0.0711377816735114
97,2.826,0.0547334170498453
98,2.833,0.0399230667179436
99,2.841,0.0650301900713827
100,2.848,0.0547278240172426
101,2.856,0.0695437673817471
102,2.863,0.062809756128118
103,2.871,0.0563442104394177
104,2.878,0.0742027635397811
105,2.886,0.0788841318282259
106,2.893,0.0670996121343751
107,2.901,0.0750976487562102
108,2.908,0.0606732176738935
109,2.916,0.0622504528678498
110,2.924,0.0595098668925357
111,2.931,0.0631453380842789
112,2.939,0.0522277384438438
113,2.946,0.0549739174517606
114,2.954,0.416468393660902
115,2.961,8.94391351650291
116,2.969,48.4271497436042
117,2.976,100
118,2.984,43.4569404724591
119,2.991,0.612028778613675
120,2.999,0.160754943066284
121,3.006,0.122095901716546
122,3.014,0.100993389706628
123,3.021,0.0859145738097971
124,3.029,0.0676477293294379
125,3.037,0.0878721352207357
126,3.044,0.112179454911991
127,3.052,0.0762162552767466
128,3.059,0.0906854306198848
129,3.067,0.0842814082898139
130,3.074,0.0766189536241397
131,3.082,0.0720382599225432
132,3.089,0.0644652937785119
133,3.097,0.0699464657291402
134,3.104,0.0570880837755744
135,3.112,0.0648120617998782
136,3.119,0.0606396594782774
137,3.127,0.094320901811628
138,3.134,0.0590903894473345
139,3.142,0.0642359794418019
140,3.150,0.0478204287529305
141,3.157,0.0571272350037932
142,3.165,0.0627090815412698
143,3.172,0.0655671212012402
144,3.180,0.048637011512922
145,3.187,0.0593868201752767
146,3.195,0.0497947692616772
147,3.202,0.0530387281712327
148,3.210,0.0760820224942822
149,3.217,0.0447442608214554
150,3.225,0.0444646091913213
151,3.232,0.0357226992333295
152,3.240,0.0326633103996624
153,3.248,0.0422218031176459
154,3.255,0.0622616389330552
155,3.263,0.0739958213334819
156,3.270,0.0628656864541449
157,3.278,0.0384465061108356
158,3.285,0.0474401025359481
159,3.293,0.0398056130332873
160,3.300,0.044716295658442
161,3.308,0.0423056986066861
162,3.315,0.0540286949419074
163,3.323,0.0413381039664221
164,3.330,0.0429712694864052
165,3.338,0.0451693312992592
166,3.345,0.0347495115604628
167,3.353,0.0279092326873828
168,3.361,0.0287258154473744
169,3.368,0.0335973468443103
170,3.376,0.0511762483145396
171,3.383,0.030560330141054
172,3.391,0.0287202224147717
173,3.398,0.0197601841852752
174,3.406,0.0489837795342883
175,3.413,0.0285356523388832
176,3.421,0.0211304771729323
177,3.428,0.0504603401413963
178,3.436,0.0292963047728479
179,3.443,0.0289103855232629
180,3.451,0.0365896192867452
181,3.459,0.021734524694022
182,3.466,0.0364665725694862
183,3.474,0.028116174893682
184,3.481,0.037613144253036
185,3.489,0.0827824755522952
186,3.496,0.0627761979325019
187,3.504,0.0406389748910869
188,3.511,0.044240887887214
189,3.519,0.0282671867739545
190,3.526,0.0324284030303498
191,3.534,0.0298723871309242
192,3.541,0.0151235601576519
193,3.549,0.0399566249135597
194,3.556,0.0204313480975971
195,3.564,0.0272268827098556
196,3.572,0.01514033925546
197,3.579,0.0384688782412463
198,3.587,0.011376228313855
199,3.594,0.027377894590128
200,3.602,0.0204984644888293
201,3.609,0.0290613974035353
202,3.617,0.0284573498824456
203,3.624,0.0237871676592062
204,3.632,0.0199671263915745
205,3.639,0.0335637886486942
206,3.647,0.0182892166107699
207,3.654,0.0261250552871273
208,3.662,0.0146928966472454
209,3.670,0.0325067054867874
210,3.677,0.0303030506413307
211,3.685,0.00765126860046887
212,3.692,0.0189268223274756
213,3.700,0.0303813530977682
214,3.707,0.0361253975807226
215,3.715,0.0193351137074714
216,3.722,0.0434131190620171
217,3.730,0.0201852546630791
218,3.737,0.012466869671378
219,3.745,0.0162365736455856
220,3.752,0.00734365180732137
221,3.760,0.0275960228616326
222,3.767,0.0331443112034931
223,3.775,0.024687645908238
224,3.783,0.0298388289353081
225,3.790,0.0211136980751243
226,3.798,0.0255825311246671
227,3.805,0.0298556080331161
228,3.813,0.022349758280317
229,3.820,0.0216897804332005
230,3.828,0.00990526073934969
231,3.835,0.0217848619874461
232,3.843,0.0287370015125797
233,3.850,0.019184101827199
234,3.858,0.0114209725746765
235,3.865,0.011834856987275
236,3.873,0.0194805325551411
237,3.880,0.0242625754304342
238,3.888,0.0258733688200066
239,3.896,0.0119131594437125
240,3.903,0.020906755868825
241,3.911,0.0331051599752743
242,3.918,0.0312874243794027
243,3.926,0.0309015051298176
244,3.933,0.0304876207172192
245,3.941,0.00249449254079614
246,3.948,0.031158784629541
247,3.956,0.0214548730638879
248,3.963,0.024424773375912
249,3.971,0.068788707980385
250,3.978,0.0656566097228831
251,3.986,0.0130261729316462
252,3.994,0.0220477345197722
253,4.001,0.0364218283086647
254,4.009,0.0360806533199011
255,4.016,0.0333624394749977
256,4.024,0.0186359846321362
257,4.031,0.0192847764140473
258,4.039,0.0321151932045996
259,4.046,0.0369699455037275
260,4.054,0.0102967730215374
261,4.061,0.0144803614083435
262,4.069,0.0327192407256893
263,4.076,0.0295703633703793
264,4.084,0.036293188558803
265,4.091,0.0101849123694838
266,4.099,0.0289383506862763
267,4.107,0.0339329288004712
268,4.114,0.0271877314816368
269,4.122,0.0127073700732933
270,4.129,0.0332841370185601
271,4.137,0.0399622179461624
272,4.144,0.0183898911976182
273,4.152,0.0328926247363724
274,4.159,0.00453594944077504
275,4.167,0.0220701066501829
276,4.174,0.0329597411276046
277,4.182,0.0290278392079192
278,4.189,0.0199111960655477
279,4.197,0.0223106070520982
280,4.205,0.023104817681679
281,4.212,0.0310413309448847
282,4.220,0.0193462997726768
283,4.227,0.0261530204501407
284,4.235,0.0389275069146662
285,4.242,0.0255713450594618
286,4.250,0.0244303664085147
287,4.257,0.0400013691743811
288,4.265,0.0157779449721657
289,4.272,0.0206103251408829
290,4.280,0.0412262433143685
291,4.287,0.0358625250483965
292,4.295,0.0102855869563321
293,4.302,0.0279595699808069
294,4.310,0.0212199656945752
295,4.318,0.0250511930274123
296,4.325,0.0394196937837022
297,4.333,0.0439164919962585
298,4.340,0.0329094038341805
299,4.348,0.0285356523388832
300,4.355,0.0214045357704637
301,4.363,0.015632526124496
302,4.370,0.0252413561359035
303,4.378,0.0100339004892114
304,4.385,0.0244359594411173
305,4.393,0.0124221254105566
306,4.400,0.0222323045956607
307,4.408,0.020414568999789
308,4.416,0.0916977695209702
309,4.423,0.129646495730167
310,4.431,0.0634865130730425
311,4.438,0.0324899263889793
312,4.446,0.0207389648907446
313,4.453,0.00926206199004127
314,4.461,0.0294249445227096
315,4.468,0.0405047421086225
316,4.476,0.0201796616304764
317,4.483,0.0234348066052373
318,4.491,0.0145195126365623
319,4.498,0.0193462997726768
320,4.506,0.0116670660091945
321,4.513,0.0133449757899991
322,4.521,0.0241115635501618
323,4.529,0.0222714558238794
324,4.536,0.0298220498375
325,4.544,0.0276799183506728
326,4.551,0.0231215967794871
327,4.559,0.0429097461277757
328,4.566,0.0255937171898725
329,4.574,0.0166504580581841
330,4.581,0.0328199153125375
331,4.589,0.0185744612735067
332,4.596,0.0306945629235184
333,4.604,0.023949365604684
334,4.611,0.0251294954838499
335,4.619,0.00891529396867499
336,4.627,0.0258118454613771
337,4.634,0.0197266259896592
338,4.642,0.0179480416220063
339,4.649,0.0197434050874672
340,4.657,0.0270367196013644
341,4.664,0.0148998388535447
342,4.672,0.0254482983422028
343,4.679,0.0126402536820612
344,4.687,0.0301576317936609
345,4.694,0.0341846152675919
346,4.702,0.0251239024512472
347,4.709,0.0314328432270724
348,4.717,0.0374956905683796
349,4.724,0.0297381543484598
350,4.732,0.0319585882917245
351,4.740,0.00951374845716196
352,4.747,0.0372440041012589
353,4.755,0.0154703281790182
354,4.762,0.0176851690896802
355,4.770,0.0264102999498641
356,4.777,0.012080950421793
357,4.785,0.0110462393902968
358,4.792,0.0302303412174958
359,4.800,0.0159681080806569
360,4.807,0.0251350885164526
361,4.815,0
362,4.822,0.0166672371559921
363,4.830,0.0352584775273069
364,4.837,0.0136358134853385
365,4.845,0.0325234845845954
366,4.853,0.0129199053121952
367,4.860,0.0184122633280289
368,4.868,0.0156604912875094
369,4.875,0.0283063380021732
370,4.883,0.0398839154897248
371,4.890,0.051785888868232
372,4.898,0.0439668292896826
373,4.905,0.0282671867739545
374,4.913,0.0144076519845086
375,4.920,0.0237983537244116
376,4.928,0.0158730265264113
377,4.935,0.0242905405934476
378,4.943,0.0372999344272858
379,4.951,0.0304708416194111
380,4.958,0.0267514749386277
381,4.966,0.0277078835136863
382,4.973,0.00892648003388035
383,4.981,0.0304260973585897
384,4.988,0.0174334826225596
385,4.996,0.0299898408155805
386,5.003,0.0270534986991725
387,5.011,0.0119019733785071
388,5.018,0.0308567608689962
389,5.026,0.0194693464899358
390,5.033,0.0193462997726768
391,5.041,0.030437283423795
392,5.048,0.0180654953066626
393,5.056,0.032003332552546
394,5.064,0.0186695428277523
395,5.071,0.0168909584600994
396,5.079,0.0152242347445002
397,5.086,0.00865801446895162
398,5.094,0.0248274717233051
399,5.101,0.0310301448796793
400,5.109,0.0193798579682929
401,5.116,0.0349340816363513
402,5.124,0.0200006845871906
403,5.131,0.0282895589043652
404,5.139,0.0215387685529281
405,5.146,0.02298177096442
406,5.154,0.021398942737861
407,5.162,0.0169301096883182
408,5.169,0.0123661950845297
409,5.177,0.0318075764114521
410,5.184,0.0344307087021099
411,5.192,0.0214213148682718
412,5.199,0.0224056886063438
413,5.207,0.0309686215210498
414,5.214,0.0248834020493319
415,5.222,0.0169021445253048
416,5.229,0.0334183698010245
417,5.237,0.0244974827997468
418,5.244,0.0179032973611848
419,5.252,0.0227077123668886
420,5.259,0.0133393827573964
421,5.267,0.0410304871732746
422,5.275,0.0299730617177724
423,5.282,0.0298947592613349
424,5.290,0.00945222509853245
425,5.297,0.0199783124567798
426,5.305,0.010744215629752
427,5.312,0.0227524566277101
428,5.320,0.0285356523388832
429,5.327,0.0225790726170269
430,5.335,0.0164714810148983
431,5.342,0.00281888843175169
432,5.350,0.0082609091541612
433,5.357,0.0337539517571854
434,5.365,0.0355605012878517
435,5.373,0.0306050744018755
436,5.380,0.00675079035143708
437,5.388,0.0161358990587374
438,5.395,0.0192456251858285
439,5.403,0.0134792085724634
440,5.410,0.00387597159365857
441,5.418,0.0207333718581419
442,5.425,0.0237592024961928
443,5.433,0.0216562222375844
444,5.440,0.0342405455936187
445,5.448,0.02467086681043
446,5.455,0.0185129379148772
447,5.463,0.023104817681679
448,5.470,0.0413884412598463
449,5.478,0.0608633807823847
450,5.486,0.0375348417965984
451,5.493,0.0230768525186656
452,5.501,0.0275344995030031
453,5.508,0.0276855113832755
454,5.516,0.0282727798065571
455,5.523,0.0266675794495874
456,5.531,0.0222099324652499
457,5.538,0.015017292538201
458,5.546,0.0349340816363513
459,5.553,0.00384241339804248
460,5.561,0.0193351137074714
461,5.568,0.0138874999524592
462,5.576,0.0148215363971071
463,5.583,0.0258286245591851
464,5.591,0.0285188732410751
465,5.599,0.0183283678389887
466,5.606,0.031265052248992
467,5.614,0.0248666229515238
468,5.621,0.0294137584575042
469,5.629,0.0388883556864474
470,5.636,0.049235466001409
471,5.644,0.0226294099104511
472,5.651,0.0297605264788705
473,5.659,0.0344586738651233
474,5.666,0.0250623790926177
475,5.674,0.0214940242921066
476,5.681,0.0297549334462678
477,5.689,0.0032495519421582
478,5.697,0.015386432689978
479,5.704,0.0356108385812758
480,5.712,0.0312594592163893
481,5.719,0.0387093786431616
482,5.727,0.0430048276820213
483,5.734,0.0293074908380533
484,5.742,0.025163053679466
485,5.749,0.017338401068314
486,5.757,0.0168294351014699
487,5.764,0.0398167990984926
488,5.772,0.0354430476031954
489,5.779,0.0295312121421606
490,5.787,0.0417408023138152
491,5.794,0.0270311265687617
492,5.802,0.0245701922235817
493,5.810,0.0227972008885315
494,5.817,0.0146593384516293
495,5.825,0.0298612010657188
496,5.832,0.0108504832492029
497,5.840,0.0299395035221563
498,5.847,0.037400609014134
499,5.855,0.0226685611386698
500,5.862,0.0274002667205388
501,5.870,0.01883174077323
502,5.877,0.0240388541263269
503,5.885,0.0166057137973626
504,5.892,0.0189995317513105
505,5.900,0.0221540021392231
506,5.908,0.0323221354108989
507,5.915,0.0270982429599939
508,5.923,0.0218296062482676
509,5.930,0.039951031880957
510,5.938,0.02713180115561
511,5.945,0.0157443867765496
512,5.953,0.0202355919565032
513,5.960,0.0305379580106433
514,5.968,0.0229929570296254
515,5.975,0.0248778090167292
516,5.983,0.0441402133003658
517,5.990,0.0281888843175169
518,5.998,0.0265669048627391
519,6.005,0.0271206150904047
520,6.013,0.0418191047702528
521,6.021,0.0282839658717625
522,6.028,0.0214604660964905
523,6.036,0.0357786295593563
524,6.043,0.0278253371983426
525,6.051,0.0336197189747211
526,6.058,0.0332561718555467
527,6.066,0.0153808396573753
528,6.073,0.0354094894075793
529,6.081,0.0278924535895748
530,6.088,0.0243576569846798
531,6.096,0.0328311013777429
532,6.103,0.0161918293847642
533,6.111,0.0423112916392888
534,6.119,0.0446044350063884
535,6.126,0.0582178763613162
536,6.134,0.0740853098551248
537,6.141,0.0600356119571878
538,6.149,0.0478204287529305
539,6.156,0.0463886124066439
540,6.164,0.0479434754701895
541,6.171,0.0284797220128564
542,6.179,0.0241227496153671
543,6.186,0.0275121273725924
544,6.194,0.0341007197785517
545,6.201,0.0482902434915558
546,6.209,0.0378536446549513
547,6.216,0.0465060660913002
548,6.224,0.0432900723447581
549,6.232,0.0235242951268802
550,6.239,0.0230153291600361
551,6.247,0.0186303915995335
552,6.254,0.0217065595310086
553,6.262,0.0426636526932577
554,6.269,0.0311028543035142
555,6.277,0.0316621575637824
556,6.284,0.0415058949445026
557,6.292,0.0220980718131963
558,6.299,0.0374789114705716
559,6.307,0.0179871928502251
560,6.314,0.0246484946800192
561,6.322,0.0246037504191978
562,6.329,0.0239997028981081
563,6.337,0.0274394179487575
564,6.345,0.0182388793173458
565,6.352,0.0214828382269013
566,6.360,0.0292012232186023
567,6.367,0.0341119058437571
568,6.375,0.0223329791825089
569,6.382,0.025040006962207
570,6.390,0.0249393323753587
571,6.397,0.0253699958857652
572,6.405,0.0270311265687617
573,6.412,0.0350739074514184
574,6.420,0.0363379328196245
575,6.427,0.0166672371559921
576,6.435,0.0152913511357324
577,6.443,0.030649818662697
578,6.450,0.0357506643963429
579,6.458,0.0309909936514606
580,6.465,0.0335526025834889
581,6.473,0.0114489377376899
582,6.480,0.0161582711891481
583,6.488,0.0211696284011511
584,6.495,0.0361309906133252
585,6.503,0.0289047924906602
586,6.510,0.0313992850314563
587,6.518,0.0358960832440126
588,6.525,0.0239269934742733
589,6.533,0.0312370870859786
590,6.540,0.018921229294873
591,6.548,0.0266508003517794
592,6.556,0.0192232530554178
593,6.563,0.025179832777274
594,6.571,0.0400405204025999
595,6.578,0.0346712091040253
596,6.586,0.0304540625216031
597,6.593,0.0331163460404797
598,6.601,0.0271541732860207
599,6.608,0.0361589557763387
600,6.616,0.0390114024037064
601,6.623,0.0353815242445659
602,6.631,0.0166672371559921
603,6.638,0.0167343535472243
604,6.646,0.000564896292870875
605,6.654,0.0198496727069182
606,6.661,0.0159457359502462
607,6.669,0.0234851438986614
608,6.676,0.0371880737752321
609,6.684,0.0279427908829989
610,6.691,0.0158842125916167
611,6.699,0.0149333970491607
612,6.706,0.015878619559014
613,6.714,0.0268521495254759
614,6.721,0.0301632248262636
615,6.729,0.023334132018389
616,6.736,0.0119858688675474
617,6.744,0.029452909685723
618,6.751,0.0197937423808913
619,6.759,0.0432229559535259
620,6.767,0.0299786547503751
621,6.774,0.0217848619874461
622,6.782,0.027115022057802
623,6.789,0.0238207258548223
624,6.797,0.0285971756975127
625,6.804,0.0245757852561844
626,6.812,0.021029802586084
627,6.819,0.0322941702478854
628,6.827,0.0210018374230706
629,6.834,0.0299954338481832
630,6.842,0.0284797220128564
631,6.849,0.0156437121897013
632,6.857,0.0318858788678897
633,6.865,0.0297493404136652
634,6.872,0.0276407671224541
635,6.880,0.0329038108015778
636,6.887,0.0148774667231339
637,6.895,0.0269248589493108
638,6.902,0.0235354811920855
639,6.910,0.026393520852056
640,6.917,0.0281049888284767
641,6.925,0.0295871424681874
642,6.932,0.0423840010631236
643,6.940,0.0368748639494819
644,6.947,0.0459971001244562
645,6.955,0.0316118202703582
646,6.962,0.0271262081230073
647,6.970,0.0450295054841922
648,6.978,0.0258733688200066
649,6.985,0.0357450713637402
650,6.993,0.0241283426479698
651,7.000,0.0423616289327129
652,7.008,0.041919779357101
653,7.015,0.0405774515324574
654,7.023,0.089941557283728
655,7.030,0.139820222034445
656,7.038,0.141313561739362
657,7.045,0.0928051899763012
658,7.053,0.0819547067270983
659,7.060,0.0563665825698284
660,7.068,0.0448113772126876
661,7.076,0.053648368724925
662,7.083,0.028485315045459
663,7.091,0.0570824907429717
664,7.098,0.0622392668026445
665,7.106,0.05572338382052
666,7.113,0.0520152032049419
667,7.121,0.0574963751555702
668,7.128,0.0426300944976416
669,7.136,0.0616743705097736
670,7.143,0.0481727898068994
671,7.151,0.0549123940931311
672,7.158,0.0820050440205224
673,7.166,0.105725095288496
674,7.173,0.0995671663929436
675,7.181,0.0743537754200535
676,7.189,0.0638053159313954
677,7.196,0.0552591621144974
678,7.204,0.0596385066423974
679,7.211,0.062440615976341
680,7.219,0.0708972812715961
681,7.226,0.137191496711185
682,7.234,0.188742478210104
683,7.241,0.194402627204018
684,7.249,0.142599959237978
685,7.256,0.1105295102942
686,7.264,0.100389342185538
687,7.271,0.10420938345317
688,7.279,0.0767308142761933
689,7.286,0.0582514345569323
690,7.294,0.0650861203974096
691,7.302,0.0578319571117311
692,7.309,0.0599684955659556
693,7.317,0.0482454992307343
694,7.324,0.0619260569768943
695,7.332,0.0714286193688509
