#"+EI TIC Scan MEOH-PLA.d "
#Point,X(Minutes),Y(Counts)
0,2.095,0.191477865379722
1,2.102,0.159546854131942
2,2.110,0.144614963371878
3,2.117,0.159262111745213
4,2.125,0.145548918400349
5,2.132,0.143117218417684
6,2.140,0.128390342176065
7,2.147,0.110759093589811
8,2.155,0.116858275513544
9,2.162,0.0899785942063353
10,2.170,0.127388048974779
11,2.178,0.11366916078218
12,2.185,0.0959012358502966
13,2.193,0.0857985759691549
14,2.200,0.0853999366277344
15,2.208,0.0907075347163613
16,2.215,0.0918692836542152
17,2.223,0.0805365366624046
18,2.230,0.0718746732581112
19,2.238,0.0763223493388168
20,2.245,0.0889250473754383
21,2.253,0.0874045230303059
22,2.260,0.0747164022776657
23,2.268,0.061549914315321
24,2.276,0.0829739314928041
25,2.283,0.0705192994972816
26,2.291,0.0714475596780179
27,2.298,0.0637139564544607
28,2.306,0.062683189014502
29,2.313,0.0486510841965014
30,2.321,0.0617834030724387
31,2.328,0.0696422929461566
32,2.336,0.0674554714160785
33,2.343,0.0616752009654817
34,2.351,0.0626604096235637
35,2.358,0.0456043406585021
36,2.366,0.0660089800914957
37,2.373,0.0640841215572083
38,2.381,0.0730364221959652
39,2.389,0.0922451436046974
40,2.396,0.181699811819451
41,2.404,0.237532099009256
42,2.411,0.134916637679892
43,2.419,0.0621649578706554
44,2.426,0.0607924995666221
45,2.434,0.0434744676057698
46,2.441,0.0464927369050963
47,2.449,0.043958529663209
48,2.456,0.0465496853824421
49,2.464,0.0361565882668369
50,2.471,0.037734061089315
51,2.479,0.0627287477963787
52,2.486,0.0511795965906541
53,2.494,0.0433036221737325
54,2.502,0.0556044932804214
55,2.509,0.0568858340207015
56,2.517,0.0426771889229289
57,2.524,0.0382522922331616
58,2.532,0.0614587967515677
59,2.539,0.0734122821464473
60,2.547,0.0532525211660406
61,2.554,0.0580760571972283
62,2.562,0.0549097218568028
63,2.569,0.0431954200667755
64,2.577,0.0574382342509555
65,2.584,0.0507581778582953
66,2.592,0.0528140178904781
67,2.600,0.0656160355978098
68,2.607,0.0399664414012697
69,2.615,0.0545281670585861
70,2.622,0.0475462837359932
71,2.630,0.0504221818419552
72,2.637,0.0269935782619006
73,2.645,0.0615385246198518
74,2.652,0.0363957718716892
75,2.660,0.0523128712898352
76,2.667,0.0517092174299699
77,2.675,0.0396760041668062
78,2.682,0.0430929128075531
79,2.690,0.04097442945029
80,2.697,0.0625806817552796
81,2.705,0.0573186424485294
82,2.713,0.0611740543648388
83,2.720,0.0459118624361693
84,2.728,0.0552628024163467
85,2.735,0.0669486299677011
86,2.743,0.0530930654294724
87,2.750,0.0401429816810416
88,2.758,0.0459631160657805
89,2.765,0.0625635972120759
90,2.773,0.0886004410545673
91,2.780,0.0829625417973349
92,2.788,0.0499381197845161
93,2.795,0.0388673357884961
94,2.803,0.0712596297027768
95,2.811,0.0900924911610268
96,2.818,0.0445621835230743
97,2.826,0.0595965815423607
98,2.833,0.0409288706684134
99,2.841,0.0601546766203493
100,2.848,0.050843600574314
101,2.856,0.0570509846050042
102,2.863,0.0477399085589689
103,2.871,0.0370449845134311
104,2.878,0.0361053346372257
105,2.886,0.0704167922380592
106,2.893,0.0589644534438225
107,2.901,0.063332401656244
108,2.908,0.0564131616587315
109,2.916,0.0646479114829315
110,2.924,0.0330927601856338
111,2.931,0.0500406270437385
112,2.939,0.0659862007005574
113,2.946,0.0454619694651376
114,2.954,0.427876689689797
115,2.961,8.53128054573954
116,2.969,46.1070020886424
117,2.976,100
118,2.984,38.3614282951471
119,2.991,0.47738769589422
120,2.999,0.117137323052539
121,3.006,0.0877063499602386
122,3.014,0.0999787468282545
123,3.022,0.0653085138201426
124,3.029,0.067489640502486
125,3.037,0.0798759343251936
126,3.044,0.0830935232952302
127,3.052,0.0620795351546368
128,3.059,0.0644941505940979
129,3.067,0.0807700254195223
130,3.074,0.0677800777369495
131,3.082,0.0574780981850976
132,3.089,0.0773531167787754
133,3.097,0.564308156867087
134,3.104,3.47234228859529
135,3.112,1.61309978990568
136,3.119,0.336024490578786
137,3.127,0.241740591485109
138,3.135,0.154330373607069
139,3.142,0.100952565790867
140,3.150,0.0927178159666674
141,3.157,0.122336719034208
142,3.165,0.0984183585489801
143,3.172,0.067085306313331
144,3.180,0.0704680458676704
145,3.187,0.0754054788535497
146,3.195,0.0630590489649842
147,3.202,0.0756161882197291
148,3.210,0.0725808343771989
149,3.217,0.0588106925549889
150,3.225,0.0621592630229208
151,3.232,0.0483891212007108
152,3.240,0.0706445861474423
153,3.248,0.0593517030897738
154,3.255,0.06217065271839
155,3.263,0.0733951976032436
156,3.270,0.0634292140677318
157,3.278,0.0389185894181073
158,3.285,0.052409683701323
159,3.293,0.0650237714334137
160,3.300,0.0497843588956825
161,3.308,0.0801151179300458
162,3.315,0.0707527882543993
163,3.323,0.0483264778756304
164,3.330,0.0541181380216965
165,3.338,0.0323809042188115
166,3.346,0.0883100038201039
167,3.353,0.155099178051237
168,3.361,0.0850354663727214
169,3.368,0.0611512749739005
170,3.376,0.0679338386257831
171,3.383,0.0460143696953917
172,3.391,0.0393058390640586
173,3.398,0.0304617405322587
174,3.406,0.0470622216785541
175,3.413,0.0475747579746661
176,3.421,0.060604569591381
177,3.428,0.0552115487867355
178,3.436,0.040866227343333
179,3.443,0.0453594622059152
180,3.451,0.0307806520053951
181,3.459,0.0529677787793117
182,3.466,0.0293341606808122
183,3.474,0.0294423627877692
184,3.481,0.0461168769546141
185,3.489,0.0861174874422913
186,3.496,0.0878544160013376
187,3.504,0.0472444568060606
188,3.511,0.0305129941618699
189,3.519,0.0187759129809043
190,3.526,0.0191460780836518
191,3.534,0.0281496323520199
192,3.541,0.0213784583956065
193,3.549,0.0347271814854577
194,3.557,0.0280243457018592
195,3.564,0.0420564505198599
196,3.572,0.0249263485342487
197,3.579,0.050518994253443
198,3.587,0.0278193311834144
199,3.594,0.0423582774497925
200,3.602,0.0224946485515838
201,3.609,0.0104557404406855
202,3.617,0.0438958863381286
203,3.624,0.0381156158875318
204,3.632,0.0328251023421086
205,3.639,0.0190207914334911
206,3.647,0.0234798572096658
207,3.654,0.0257407117602934
208,3.662,0.0287248119732123
209,3.670,0.0292715173557319
210,3.677,0.0301485239068569
211,3.685,0.0285368819979713
212,3.692,0.0230356590863687
213,3.700,0.0379390756077598
214,3.707,0.032847881733047
215,3.715,0.0323125660459966
216,3.722,0.0191460780836518
217,3.730,0.0117598605719039
218,3.737,0.0416464214829702
219,3.745,0.0256837632829476
220,3.752,0.0302168620796718
221,3.760,0.028662168648132
222,3.768,0.0234513829709929
223,3.775,0.0239240553329629
224,3.783,0.0236222284030303
225,3.790,0.0380301931715131
226,3.798,0.0267657843525175
227,3.805,0.0244593710200133
228,3.813,0.021452491416156
229,3.820,0.0249377382297179
230,3.828,0.0321303309184901
231,3.835,0.0212474768977112
232,3.843,0.0261792150358559
233,3.850,0.0212133078113037
234,3.858,0.0309344128942287
235,3.865,0.036344518242078
236,3.873,0.0299321196929429
237,3.881,0.036167977962306
238,3.888,0.00506841448377458
239,3.896,0.0343228472963027
240,3.903,0.0288557934711076
241,3.911,0.0356668313616631
242,3.918,0.0216233368481934
243,3.926,0.0335711273953384
244,3.933,0.0263899244020353
245,3.941,0.0261336562539793
246,3.948,0.0156836106610283
247,3.956,0.0235766696211537
248,3.963,0.0572047454938378
249,3.971,0.0938624803613176
250,3.979,0.0532809954047135
251,3.986,0.03179433490215
252,3.994,0.00960720812823339
253,4.001,0.0302054723842027
254,4.009,0.0131266240282027
255,4.016,0.0454448849219339
256,4.024,0.0324264630006882
257,4.031,0.0366121760856031
258,4.039,0.0428366446594971
259,4.046,0.0193909565362387
260,4.054,0.0148521628917799
261,4.061,0.0231609457365295
262,4.069,0.0388331667020886
263,4.076,0.0242315771106302
264,4.084,0.0268853761549436
265,4.092,0.0316177946223781
266,4.099,0.0244821504109516
267,4.107,0.0225686815721333
268,4.114,0.0272726258008949
269,4.122,0.0241290698514078
270,4.129,0.0236108387075611
271,4.137,0.0217030647164774
272,4.144,0.0282065808293657
273,4.152,0.026298806838282
274,4.159,0.0365723121514611
275,4.167,0.0268967658504128
276,4.174,0.0326542569100713
277,4.182,0.0155583240108676
278,4.189,0.0259628108219419
279,4.197,0.0332294365312637
280,4.205,0.0214297120252177
281,4.212,0.00572901682098565
282,4.220,0.0374834877889936
283,4.227,0.0341633915597345
284,4.235,0.0229502363703501
285,4.242,0.0329048302103927
286,4.250,0.0359857428347995
287,4.257,0.0310312253057165
288,4.265,0.0249035691433104
289,4.272,0.0252566497028542
290,4.280,0.0220219761896138
291,4.287,0.0201369815894684
292,4.295,0.0298353072814551
293,4.303,0.0211108005520813
294,4.310,0.0138954284723708
295,4.318,0.032847881733047
296,4.325,0.0215720832185822
297,4.333,0.0421304835404094
298,4.340,0.00902063881157184
299,4.348,0.0210082932928589
300,4.355,0.0221700422307129
301,4.363,0.0155241549244601
302,4.370,0.0174717928496859
303,4.378,0.0163726872369123
304,4.385,0.0139922408838586
305,4.393,0.0183886633349529
306,4.400,0.0160082169818993
307,4.408,0.0290721976850216
308,4.416,0.106715751698261
309,4.423,0.128578272151306
310,4.431,0.0390154018295951
311,4.438,0.0346816227035811
312,4.446,0.0225629867243988
313,4.453,0.0112928830576685
314,4.461,0.030524383857339
315,4.468,0.0177963991705568
316,4.476,0.0208431427085561
317,4.483,0.0239753089625741
318,4.491,0.0279673972245134
319,4.498,0.0255186126986448
320,4.506,0.0104272662020126
321,4.514,0.0288500986233731
322,4.521,0.0261051820153064
323,4.529,0.0381042261920626
324,4.536,0.0128304919460046
325,4.544,0.0309344128942287
326,4.551,0.0339355976503514
327,4.559,0.0125628341024795
328,4.566,0.0222383804035278
329,4.574,0.0137074984971297
330,4.581,0.0319708751819219
331,4.589,0.0276029269695004
332,4.596,0.0205811797127655
333,4.604,0.026475347118054
334,4.611,0.0173408113517906
335,4.619,0.0143908802252791
336,4.627,0.017266778331241
337,4.634,0.0147211813938846
338,4.642,0.0335369583089309
339,4.649,0.0280300405495938
340,4.657,0.0212417820499766
341,4.664,0.0304560456845241
342,4.672,0.0222953288808736
343,4.679,0.0240664265263274
344,4.687,0.0221871267739166
345,4.694,0.0243796431517292
346,4.702,0.0257350169125588
347,4.709,0.0306041117256231
348,4.717,0.0205640951695618
349,4.725,0.020359080651117
350,4.732,0.0277965517924761
351,4.740,0.0250288557934711
352,4.747,0.0163783820846468
353,4.755,0.014607284439193
354,4.762,0.0181153106436932
355,4.770,0.0295961236766028
356,4.777,0.0414698812031983
357,4.785,0.0218397410621073
358,4.792,0.0301143548204494
359,4.800,0.0346873175513157
360,4.807,0.0160594706115105
361,4.815,0.0218909946917185
362,4.822,0.00922565333001665
363,4.830,0.0266860564842334
364,4.838,0.0298296124337205
365,4.845,0.0266006337682147
366,4.853,0.0373126423569562
367,4.860,0.0246643855384581
368,4.868,0
369,4.875,0.00896369033422606
370,4.883,0.0153191404060153
371,4.890,0.00248295361227609
372,4.898,0.0445621835230743
373,4.905,0.0212531717454458
374,4.913,0.0361622831145715
375,4.920,0.0226597991358866
376,4.928,0.0294252782445655
377,4.935,0.00941927815299231
378,4.943,0.0265493801386035
379,4.951,0.024328389522118
380,4.958,0.0128134074028009
381,4.966,0.0232805375389556
382,4.973,0.020683686971988
383,4.981,0.0138213954518212
384,4.988,0.0178305682569643
385,4.996,0.00895799548649148
386,5.003,0.00192485853428743
387,5.011,0.024476455563217
388,5.018,0.0413673739439759
389,5.026,0.0207918890789449
390,5.033,0.0322783969595891
391,5.041,0.0324834114780339
392,5.049,0.0332579107699366
393,5.056,0.0678598056052336
394,5.064,0.0935150946495083
395,5.071,0.0287362016686815
396,5.079,0.0246188267565815
397,5.086,0.0143453214434024
398,5.094,0.0192201111042014
399,5.101,0.0275345887966855
400,5.109,0.0286849480390703
401,5.116,0.0345734205966241
402,5.124,0.0319936545728602
403,5.131,0.0192144162564668
404,5.139,0.0225857661153371
405,5.146,0.0204388085194011
406,5.154,0.0297897484995785
407,5.162,0.00572332197325107
408,5.169,0.016065165459245
409,5.177,0.0207691096880066
410,5.184,0.031173596499081
411,5.192,0.0175799949566428
412,5.199,0.0183089354666689
413,5.207,0.00917439970040545
414,5.214,0.0263785347065661
415,5.222,0.026839817373067
416,5.229,0.019630140141091
417,5.237,0.0105297734612351
418,5.244,0.0305585529437465
419,5.252,0.025381936353015
420,5.260,0.0207121612106608
421,5.267,0.0124432423000533
422,5.275,0.0328364920375778
423,5.282,0.0173180319608522
424,5.290,0.0192770595815471
425,5.297,0.0179672446025942
426,5.305,0.0331610983584487
427,5.312,0.0203363012601787
428,5.320,0.0294765318741767
429,5.327,0.0483720366575071
430,5.335,0.0294252782445655
431,5.342,0.0270903906733884
432,5.350,0.022329497967281
433,5.357,0.0223693619014231
434,5.365,0.0272612361054258
435,5.373,0.023599449012092
436,5.380,0.0184797808987062
437,5.388,0.011178986102977
438,5.395,0.0203363012601787
439,5.403,0.0151141258875705
440,5.410,0.0182292075983848
441,5.418,0.0417318441989889
442,5.425,0.0327169002351516
443,5.433,0.0262361635132017
444,5.440,0.0370392896656965
445,5.448,0.0307180086803147
446,5.455,0.0340494946050429
447,5.463,0.0350062290244521
448,5.471,0.0482638345505501
449,5.478,0.0328649662762507
450,5.486,0.0463674502549355
451,5.493,0.0287362016686815
452,5.501,0.0315836255359706
453,5.508,0.0109796664322667
454,5.516,0.0165947862985608
455,5.523,0.0282350550680386
456,5.531,0.00821766528099632
457,5.538,0.0308831592646175
458,5.546,0.0294537524832384
459,5.553,0.0177052816068036
460,5.561,0.0284229850432797
461,5.568,0.0306952292893764
462,5.576,0.0217030647164774
463,5.584,0.0305471632482774
464,5.591,0.0195504122728069
465,5.599,0.0122439226293431
466,5.606,0.0197212577048442
467,5.614,0.00703313695220405
468,5.621,0.0558835408194157
469,5.629,0.0520338237508408
470,5.636,0.0500520167392076
471,5.644,0.0317032173383967
472,5.651,0.0160423860683067
473,5.659,0.0381156158875318
474,5.666,0.0163783820846468
475,5.674,0.0229673209135538
476,5.682,0.0341804761029382
477,5.689,0.0118338935924535
478,5.697,0.0396133608417258
479,5.704,0.0244593710200133
480,5.712,0.0248807897523721
481,5.719,0.0490326389947181
482,5.727,0.0620168918295564
483,5.734,0.0274548609284014
484,5.742,0.0355415447115024
485,5.749,0.0284002056523414
486,5.757,0.0245618782792357
487,5.764,0.0287931501460273
488,5.772,0.0373866753775058
489,5.779,0.0300744908863074
490,5.787,0.0359230995097192
491,5.795,0.012676731057171
492,5.802,0.00805820954442813
493,5.810,0.0400632538127575
494,5.817,0.0274491660806668
495,5.825,0.0315266770586248
496,5.832,0.019521938034134
497,5.840,0.0367203781925601
498,5.847,0.0226256300494791
499,5.855,0.01883286145825
500,5.862,0.032010739116064
501,5.870,0.0147268762416192
502,5.877,0.0209969035973898
503,5.885,0.0241461543946115
504,5.892,0.021708759564212
505,5.900,0.0124432423000533
506,5.908,0.0233545705595051
507,5.915,0.0244252019336058
508,5.923,0.031942400943249
509,5.930,0.0216119471527242
510,5.938,0.0251541424436318
511,5.945,0.00923704302548581
512,5.953,0.0180811415572857
513,5.960,0.0243340843698526
514,5.968,0.0241575440900806
515,5.975,0.0202337940009563
516,5.983,0.0235595850779499
517,5.990,0.0231438611933257
518,5.998,0.0188271666105155
519,6.006,0.0266803616364988
520,6.013,0.042324108363385
521,6.021,0.0400461692695538
522,6.028,0.0428594240504354
523,6.036,0.0369595617974124
524,6.043,0.0363502130898125
525,6.051,0.0322613124163854
526,6.058,0.0228932878930043
527,6.066,0.0469995783534737
528,6.073,0.0231837251274678
529,6.081,0.022437700074238
530,6.088,0.0219935019509409
531,6.096,0.0379732446941673
532,6.103,0.0262019944267942
533,6.111,0.0219536380167989
534,6.119,0.0331383189675104
535,6.126,0.0506727551422767
536,6.134,0.0714247802870795
537,6.141,0.0653654622974884
538,6.149,0.0511283429610429
539,6.156,0.0467546999008869
540,6.164,0.041407237878118
541,6.171,0.0433150118692016
542,6.179,0.0240094780489816
543,6.186,0.0420564505198599
544,6.194,0.0255926457191943
545,6.201,0.0285881356275825
546,6.209,0.0133999767194625
547,6.217,0.0477456034067035
548,6.224,0.0188841150878612
549,6.232,0.0318626730749649
550,6.239,0.0444767608070556
551,6.247,0.0276484857513771
552,6.254,0.0372101350977338
553,6.262,0.03638438217622
554,6.269,0.0401828456151836
555,6.277,0.0264240934884428
556,6.284,0.0189239790220033
557,6.292,0.0500121528050656
558,6.299,0.0242600513493031
559,6.307,0.0207861942312104
560,6.314,0.0261849098835905
561,6.322,0.0223522773582194
562,6.330,0.0261222665585101
563,6.337,0.0145104720277052
564,6.345,0.0320562978979406
565,6.352,0.0209342602723094
566,6.360,0.0345164721192784
567,6.367,0.0185538139192557
568,6.375,0.0236336180984995
569,6.382,0.0163214336073011
570,6.390,0.0359515737483921
571,6.397,0.03179433490215
572,6.405,0.0283603417181993
573,6.412,0.0295790391333991
574,6.420,0.025638204501071
575,6.428,0.0215151347412364
576,6.435,0.0360369964644107
577,6.443,0.0318000297498846
578,6.450,0.0198123752685975
579,6.458,0.0261051820153064
580,6.465,0.0322840918073237
581,6.473,0.0341178327778579
582,6.480,0.0359060149665154
583,6.488,0.0308376004827409
584,6.495,0.0283717314136685
585,6.503,0.019994610396104
586,6.510,0.028662168648132
587,6.518,0.0351315156746128
588,6.525,0.0555304602598718
589,6.533,0.0329389992968002
590,6.541,0.0506898396854804
591,6.548,0.0241347646991423
592,6.556,0.028593830475317
593,6.563,0.0531044551249415
594,6.571,0.045997285152188
595,6.578,0.0408377531046601
596,6.586,0.0580418881108208
597,6.593,0.0555361551076064
598,6.601,0.0404334189155051
599,6.608,0.0349378908516371
600,6.616,0.0579621602425367
601,6.623,0.0612537822331229
602,6.631,0.0633210119607748
603,6.638,0.0367944112131096
604,6.646,0.0348467732878839
605,6.654,0.0346816227035811
606,6.661,0.0251028888140206
607,6.669,0.0337305831319066
608,6.676,0.0359629634438612
609,6.684,0.0357066952958052
610,6.691,0.0348809423742914
611,6.699,0.0347157917899886
612,6.706,0.0563163492472436
613,6.714,0.0546192846223393
614,6.721,0.0369937308838199
615,6.729,0.0380928364965935
616,6.736,0.0400404744218192
617,6.744,0.028405900500076
618,6.752,0.0522559228124894
619,6.759,0.0318000297498846
620,6.767,0.0172838628744448
621,6.774,0.0386907955087242
622,6.782,0.0385427294676251
623,6.789,0.0411281903391236
624,6.797,0.0298865609110663
625,6.804,0.0271074752165921
626,6.812,0.0215379141321747
627,6.819,0.0477797724931109
628,6.827,0.0382522922331616
629,6.834,0.0294195833968309
630,6.842,0.0327510693215591
631,6.849,0.0164068563233197
632,6.857,0.0398012908169669
633,6.865,0.0235425005347462
634,6.872,0.0319082318568416
635,6.880,0.0523584300717118
636,6.887,0.0497331052660713
637,6.895,0.0335540428521346
638,6.902,0.0348353835924147
639,6.910,0.0693347711684894
640,6.917,0.0496647670932563
641,6.925,0.0554051736097111
642,6.932,0.0464187038845468
643,6.940,0.0407010767590303
644,6.947,0.0325802238895218
645,6.955,0.0490781977765948
646,6.963,0.0389413688090456
647,6.970,0.0374094547684441
648,6.978,0.044214797811265
649,6.985,0.0346474536171737
650,6.993,0.0358319819459659
651,7.000,0.0293398555285468
652,7.008,0.0526545621539099
653,7.015,0.0473697434562213
654,7.023,0.135355140955454
655,7.030,0.178391105285662
656,7.038,0.147411133609556
657,7.045,0.0834636883979778
658,7.053,0.0656388149887481
659,7.060,0.0523242609853043
660,7.068,0.0571591867119612
661,7.076,0.0437364306015604
662,7.083,0.0466123287075224
663,7.091,0.0425632919682373
664,7.098,0.0511966811338578
665,7.106,0.0659121676800079
666,7.113,0.0512707141544074
667,7.121,0.0518345040801306
668,7.128,0.0626774941667675
669,7.136,0.046766089596356
670,7.143,0.0442888308318145
671,7.151,0.0769715619805587
672,7.158,0.0933613337606747
673,7.166,0.121790013651689
674,7.174,0.0975299623023859
675,7.181,0.0839648349986207
676,7.189,0.055581713889483
677,7.196,0.0497160207228675
678,7.204,0.0538732595691096
679,7.211,0.0496078186159105
680,7.219,0.0876664860260965
681,7.226,0.166101623874442
682,7.234,0.236171030400692
683,7.241,0.203556637424763
684,7.249,0.154330373607069
685,7.256,0.103150777016415
686,7.264,0.0996769198983219
687,7.271,0.0759123203019272
688,7.279,0.0818805207277651
689,7.287,0.0589587585960879
690,7.294,0.0660602337211069
691,7.302,0.0676604859345234
692,7.309,0.0590441813121066
693,7.317,0.0502456415621833
694,7.324,0.0461966048228982
