#"+EI TIC Scan MEOH-End-Blank2.d "
#Point,X(Minutes),Y(Counts)
0,2.095,0.213770794171668
1,2.102,0.177758398673455
2,2.110,0.162788436615181
3,2.117,0.176662713619807
4,2.125,0.155283654048929
5,2.132,0.167719019356597
6,2.140,0.170893865807227
7,2.148,0.145343282417641
8,2.155,0.14235985082578
9,2.163,0.1501946590106
10,2.170,0.124036828482848
11,2.178,0.139178403862778
12,2.185,0.145085862435157
13,2.193,0.116083211075343
14,2.200,0.118743217561006
15,2.208,0.130703345977935
16,2.215,0.116142615686685
17,2.223,0.117621130457873
18,2.230,0.113641021497935
19,2.238,0.0919913409198302
20,2.246,0.097608376947869
21,2.253,0.0976941836086968
22,2.261,0.103469631933648
23,2.268,0.107476142943072
24,2.276,0.0938526854085575
25,2.283,0.100664414175815
26,2.291,0.0898923779857335
27,2.298,0.10227493919443
28,2.306,0.100380592143846
29,2.313,0.119132647790917
30,2.321,0.0950935817343757
31,2.328,0.0954632104271726
32,2.336,0.0814701241998611
33,2.343,0.0951265842962326
34,2.351,0.110987615524643
35,2.359,0.0872719745742983
36,2.366,0.0606191056186928
37,2.374,0.0782028705760313
38,2.381,0.0812391062668631
39,2.389,0.139501828968976
40,2.396,0.235618490120914
41,2.404,0.24357870804079
42,2.411,0.155217648925215
43,2.419,0.0967635113643332
44,2.426,0.0901629989929598
45,2.434,0.0847835814102906
46,2.441,0.0726386386469636
47,2.449,0.085126808053602
48,2.456,0.0722492084170526
49,2.464,0.0846977747494627
50,2.472,0.0886316801228012
51,2.479,0.0616883886228552
52,2.487,0.0714703479572305
53,2.494,0.0843479475937799
54,2.502,0.0638863592425226
55,2.509,0.0641503797373775
56,2.517,0.0779652521306619
57,2.524,0.0788761228379114
58,2.532,0.0777144326605497
59,2.539,0.080018011478159
60,2.547,0.0782226721131455
61,2.554,0.088202646818662
62,2.562,0.0959450478302829
63,2.570,0.0664605590673582
64,2.577,0.070770693645865
65,2.585,0.0698994260128437
66,2.592,0.0872455725248128
67,2.600,0.059774240035157
68,2.607,0.0779256490564337
69,2.615,0.0780312572543756
70,2.622,0.0732062827109017
71,2.630,0.0627114680404181
72,2.637,0.0696618075674742
73,2.645,0.0747772046552886
74,2.652,0.0716089587170294
75,2.660,0.064123977687892
76,2.667,0.0763151240378186
77,2.675,0.0808562765493234
78,2.683,0.0621372234641086
79,2.690,0.0782094710884027
80,2.698,0.0794305658771068
81,2.705,0.0614177676156289
82,2.713,0.0591867944341047
83,2.720,0.0668631903220119
84,2.728,0.0865261166763331
85,2.735,0.0763679281367896
86,2.743,0.0938526854085575
87,2.750,0.101859106915033
88,2.758,0.0830542471689907
89,2.765,0.0744867821109482
90,2.773,0.101621488469664
91,2.781,0.0669952005694394
92,2.788,0.0647048227765729
93,2.796,0.0544938301380583
94,2.803,0.109462897166855
95,2.811,0.099324510164426
96,2.818,0.0790939397461667
97,2.826,0.0591669928969906
98,2.833,0.0619986127043098
99,2.841,0.0787573136152267
100,2.848,0.0714703479572305
101,2.856,0.0587445601052227
102,2.863,0.0664869611168437
103,2.871,0.0725726335232499
104,2.878,0.0648896371229713
105,2.886,0.0679852774251454
106,2.894,0.0711865259252615
107,2.901,0.0767969614409288
108,2.909,0.0630018905847585
109,2.916,0.0678334656406038
110,2.924,0.0749026143903447
111,2.931,0.0868033381959308
112,2.939,0.0508305457719461
113,2.946,0.0708168972324646
114,2.954,0.854832357216561
115,2.961,14.6319234176872
116,2.969,60.7492875241934
117,2.976,100
118,2.984,17.0061211171578
119,2.992,0.307913902124566
120,2.999,0.183593251609749
121,3.007,0.147224428443482
122,3.014,0.122439504488975
123,3.022,0.113753230208248
124,3.029,0.0930870259734782
125,3.037,0.153415709047831
126,3.044,0.127574703113904
127,3.052,0.100770022373757
128,3.059,0.108387013650322
129,3.067,0.0997535434685653
130,3.074,0.0990604896695711
131,3.082,0.0995819301469096
132,3.089,0.106347455327567
133,3.097,0.0870277556165575
134,3.105,0.0758926912460507
135,3.112,0.0793909628028785
136,3.120,0.110419971460705
137,3.127,0.139917661248372
138,3.135,0.0944731335714666
139,3.142,0.0794635684389636
140,3.150,0.0929352141889366
141,3.157,0.0995951311716523
142,3.165,0.102631366862484
143,3.172,0.0814437221503757
144,3.180,0.0751402328357141
145,3.187,0.0706320828860661
146,3.195,0.0615827804249133
147,3.203,0.0553386957215941
148,3.210,0.071760770501571
149,3.218,0.0596620313248436
150,3.225,0.0590547841866773
151,3.233,0.0540185932473194
152,3.240,0.0851400090783447
153,3.248,0.0872455725248128
154,3.255,0.385568930173774
155,3.263,0.97180663746204
156,3.270,0.629688880229017
157,3.278,0.123033550602399
158,3.285,0.0733118909088437
159,3.293,0.0534641502081241
160,3.300,0.0520582410730215
161,3.308,0.0799058027678457
162,3.316,0.0781830690389172
163,3.323,0.0830146440947625
164,3.331,0.050599527838948
165,3.338,0.0409231767025147
166,3.346,0.0505005201533774
167,3.353,0.0513849888111415
168,3.361,0.0481309362120544
169,3.368,0.0444478503088281
170,3.376,0.053391544572039
171,3.383,0.0491276135801318
172,3.391,0.0419132535582207
173,3.398,0.0375041112941433
174,3.406,0.0410353854128281
175,3.413,0.0294382851763251
176,3.421,0.0499790796760389
177,3.429,0.034210455620828
178,3.436,0.0453785225531917
179,3.444,0.0433917683294083
180,3.451,0.0454709297263909
181,3.459,0.0360387975476984
182,3.466,0.0284020047340195
183,3.474,0.0490418069193039
184,3.481,0.0667707831488127
185,3.489,0.10174689820472
186,3.496,0.0668433887848978
187,3.504,0.0363226195796675
188,3.511,0.0405865505715747
189,3.519,0.0333655900372922
190,3.527,0.0426129078695863
191,3.534,0.0355899627064451
192,3.542,0.0217684898007893
193,3.549,0.041457818204596
194,3.557,0.0240984706678841
195,3.564,0.029913522067064
196,3.572,0.0285868190804179
197,3.579,0.0367516528838068
198,3.587,0.0407977669674586
199,3.594,0.046586416317153
200,3.602,0.0269894950865456
201,3.609,0.043668989849006
202,3.617,0.0292732723670408
203,3.624,0.0294250841515824
204,3.632,0.0211942452244798
205,3.640,0.0510285611430873
206,3.647,0.031009207120712
207,3.655,0.0299993287278918
208,3.662,0.029755109770151
209,3.670,0.0395568706416404
210,3.677,0.0237288419750872
211,3.685,0.039319252196271
212,3.692,0.0363292200920389
213,3.700,0.02254074974824
214,3.707,0.0421442714912188
215,3.715,0.0383951804642787
216,3.722,0.0446854687541975
217,3.730,0.0301775425619189
218,3.738,0.0172999429253695
219,3.745,0.0193791043223521
220,3.753,0.0358473826889286
221,3.760,0.0282039893628783
222,3.768,0.0295306923495243
223,3.775,0.0380915568951955
224,3.783,0.0263624464112651
225,3.790,0.0128247955375784
226,3.798,0.0424742971097874
227,3.805,0.0440452190541743
228,3.813,0.0234978240420891
229,3.820,0.0238080481235436
230,3.828,0.0321972993475592
231,3.835,0.0299795271907777
232,3.843,0.0205407944997138
233,3.851,0.0404215377622903
234,3.858,0.0127455893891219
235,3.866,0.025741998248356
236,3.873,0.0256033874885572
237,3.881,0.0153527917758144
238,3.888,0.0424544955726733
239,3.896,0.0361642072827545
240,3.903,0.0242700839895398
241,3.911,0.0389232214539886
242,3.918,0.00946513474054937
243,3.926,0.0291940662185843
244,3.933,0.0295834964484953
245,3.941,0.022718963582267
246,3.949,0.0351147258157062
247,3.956,0.0279201673309092
248,3.964,0.0474708849749171
249,3.971,0.0957734345086272
250,3.979,0.0494906417605573
251,3.986,0.0243690916751104
252,3.994,0.0258740084957835
253,4.001,0.0403027285396056
254,4.009,0.0323161085702439
255,4.016,0.0241776768163405
256,4.024,0.0346658909744528
257,4.031,0.0185870428377873
258,4.039,0.0331411726166655
259,4.046,0.0128775996365494
260,4.054,0.0322633044712729
261,4.062,0.0257155961988705
262,4.069,0.0152537840902438
263,4.077,0.01946491098318
264,4.084,0.0730412699016174
265,4.092,0.352044927839568
266,4.099,0.713799209377427
267,4.107,0.376044390821882
268,4.114,0.0986974614891456
269,4.122,0.019253694587296
270,4.129,0.0331411726166655
271,4.137,0.0261446295030098
272,4.144,0.0266462684432342
273,4.152,0.0253987716050446
274,4.159,0.0357219729538725
275,4.167,0.0252139572586462
276,4.175,0.0277419534968821
277,4.182,0.0349827155682787
278,4.190,0.0248509290782206
279,4.197,0.0362038103569828
280,4.205,0.0301841430742903
281,4.212,0.0247717229297641
282,4.220,0.0299399241165495
283,4.227,0.0325933300898416
284,4.235,0.0364150267528667
285,4.242,0.0212998534224218
286,4.250,0.0149303589840465
287,4.257,0.0304349625444025
288,4.265,0
289,4.273,0.0164022732428628
290,4.280,0.00355767616817023
291,4.288,0.0314448409372226
292,4.295,0.031187420954739
293,4.303,0.0198939442873192
294,4.310,0.021834494924503
295,4.318,0.0295834964484953
296,4.325,0.0327715439238686
297,4.333,0.0392664480973
298,4.340,0.0389562240158455
299,4.348,0.0489229976966192
300,4.355,0.0193989058594662
301,4.363,0.0312798281279383
302,4.370,0.0296363005474663
303,4.378,0.019200890488325
304,4.386,0.037444706682801
305,4.393,0.0254251736545301
306,4.401,0.03277814443624
307,4.408,0.0418208463850215
308,4.416,0.12770011284896
309,4.423,0.15812187436862
310,4.431,0.0731072750253311
311,4.438,0.0382169666302516
312,4.446,0.0259730161813541
313,4.453,0.0192140915130678
314,4.461,0.0201645652945456
315,4.468,0.0431607503964103
316,4.476,0.0310026066083406
317,4.484,0.0420122612437913
318,4.491,0.0213724590585069
319,4.499,0.0408373700416869
320,4.506,0.0389562240158455
321,4.514,0.0224087395008125
322,4.521,0.0361576067703832
323,4.529,0.0236826383884875
324,4.536,0.02816438628865
325,4.544,0.04388020624489
326,4.551,0.0378671394745689
327,4.559,0.0336824146311182
328,4.566,0.0342038551084567
329,4.574,0.0369562687673193
330,4.581,0.0296561020845804
331,4.589,0.0378935415240544
332,4.597,0.0278607627195669
333,4.604,0.0344150715043406
334,4.612,0.0295702954237526
335,4.619,0.0245473055091375
336,4.627,0.0480055264769983
337,4.634,0.0380849563828242
338,4.642,0.0120327340530136
339,4.649,0.0229961851018647
340,4.657,0.0481177351873117
341,4.664,0.0366526451982362
342,4.672,0.0292666718546694
343,4.679,0.0269036884257177
344,4.687,0.0275043350515127
345,4.695,0.04114099361077
346,4.702,0.0368506605693774
347,4.710,0.0504345150296637
348,4.717,0.0240588675936558
349,4.725,0.0254845782658725
350,4.732,0.0228047702430949
351,4.740,0.0316758588702207
352,4.747,0.030197344099033
353,4.755,0.0335306028465766
354,4.762,0.0112604741055629
355,4.770,0.0289366462361007
356,4.777,0.0371938872126888
357,4.785,0.012923803223149
358,4.792,0.0351147258157062
359,4.800,0.0376691241034277
360,4.808,0.0458471589315592
361,4.815,0.0341774530589712
362,4.823,0.0338870305146307
363,4.830,0.0395766721787546
364,4.838,0.0950209760982906
365,4.845,0.153745734666399
366,4.853,0.0566785997329829
367,4.860,0.0398274916488667
368,4.868,0.036632843661122
369,4.875,0.0369694697920621
370,4.883,0.046302594285184
371,4.890,0.0351015247909634
372,4.898,0.0501110899234664
373,4.906,0.0449494892490524
374,4.913,0.0273393222422284
375,4.921,0.0377087271776559
376,4.928,0.0388638168426462
377,4.936,0.0212140467615939
378,4.943,0.031682459382592
379,4.951,0.0279465693803947
380,4.958,0.0286924272783599
381,4.966,0.0397944890870099
382,4.973,0.0324283172805572
383,4.981,0.0381113584323097
384,4.988,0.0421640730283329
385,4.996,0.0315240470856791
386,5.003,0.0371674851632033
387,5.011,0.0251413516225611
388,5.019,0.0373721010467159
389,5.026,0.0325009229166423
390,5.034,0.0347516976352806
391,5.041,0.0298013133567506
392,5.049,0.0454379271645341
393,5.056,0.0864403100155053
394,5.064,0.0724076207139655
395,5.071,0.0687179342983679
396,5.079,0.0322963070331298
397,5.086,0.0284680098577332
398,5.094,0.0305735733042013
399,5.101,0.0375899179549712
400,5.109,0.0264548535844643
401,5.116,0.0283029970484489
402,5.124,0.032936556733153
403,5.132,0.0274581314649131
404,5.139,0.0261974336019808
405,5.147,0.0389628245282168
406,5.154,0.0370816785023754
407,5.162,0.0305603722794586
408,5.169,0.0488965956471337
409,5.177,0.0235638291658028
410,5.184,0.0298739189928357
411,5.192,0.0318870752661046
412,5.199,0.0274515309525417
413,5.207,0.0260984259164102
414,5.214,0.0398802957478377
415,5.222,0.0229565820276365
416,5.230,0.0382499691921085
417,5.237,0.0239862619575707
418,5.245,0.0321708972980737
419,5.252,0.0404875428860041
420,5.260,0.0230687907379498
421,5.267,0.0171679326779421
422,5.275,0.0334777987476056
423,5.282,0.035959591399242
424,5.290,0.0295768959361239
425,5.297,0.0327187398248976
426,5.305,0.0313524337640234
427,5.312,0.0301379394876907
428,5.320,0.0286396231793889
429,5.327,0.0416492330633658
430,5.335,0.0107588351653385
431,5.343,0.0394842650055553
432,5.350,0.0351741304270485
433,5.358,0.029154463144356
434,5.365,0.0236628368513734
435,5.373,0.0411079910489132
436,5.380,0.037127882088975
437,5.388,0.0300059292402632
438,5.395,0.0289498472608435
439,5.403,0.0324151162558145
440,5.410,0.0373456989972304
441,5.418,0.036137805233269
442,5.425,0.0290026513598145
443,5.433,0.0262172351390949
444,5.441,0.033431595161006
445,5.448,0.0356295657806733
446,5.456,0.0316164542588783
447,5.463,0.0523618646421047
448,5.471,0.0404347387870331
449,5.478,0.0234648214802322
450,5.486,0.045101301033594
451,5.493,0.0255241813401007
452,5.501,0.0413390089819112
453,5.508,0.0412862048829402
454,5.516,0.0423290858376172
455,5.523,0.0259796166937255
456,5.531,0.037834136912712
457,5.538,0.0344942776527971
458,5.546,0.0414116146179963
459,5.554,0.0394842650055553
460,5.561,0.0368638615941201
461,5.569,0.0505731257894625
462,5.576,0.0288310380381588
463,5.584,0.0322369024217874
464,5.591,0.0366130421240079
465,5.599,0.0250093413751336
466,5.606,0.0390024276024451
467,5.614,0.0240060634946848
468,5.621,0.0594838174908165
469,5.629,0.0587775626670796
470,5.636,0.0531407251019268
471,5.644,0.0512727801008281
472,5.652,0.0291346616072419
473,5.659,0.029649501572209
474,5.667,0.0443950462098571
475,5.674,0.0269168894504605
476,5.682,0.0414974212788242
477,5.689,0.0279069663061665
478,5.697,0.0163494691438918
479,5.704,0.0335108013094624
480,5.712,0.0405799500592033
481,5.719,0.0561043551566734
482,5.727,0.0320916911496172
483,5.734,0.0449362882243097
484,5.742,0.0287716334268164
485,5.749,0.0343754684301124
486,5.757,0.0216826831399614
487,5.765,0.0383423763653077
488,5.772,0.0371872867003174
489,5.780,0.0337418192424605
490,5.787,0.0368506605693774
491,5.795,0.0250489444493618
492,5.802,0.0301379394876907
493,5.810,0.0282435924371065
494,5.817,0.0259862172060968
495,5.825,0.0236364348018879
496,5.832,0.0298409164309789
497,5.840,0.0161580542851219
498,5.847,0.0279597704051375
499,5.855,0.0251083490607042
500,5.862,0.0278409611824528
501,5.870,0.0199203463368047
502,5.878,0.0294382851763251
503,5.885,0.0194781120079227
504,5.893,0.0359331893497565
505,5.900,0.0219005000482167
506,5.908,0.0279003657937951
507,5.915,0.049767863280155
508,5.923,0.032830948535211
509,5.930,0.0452399117933929
510,5.938,0.0300455323144914
511,5.945,0.0272007114824295
512,5.953,0.0380585543333387
513,5.960,0.0302171456361472
514,5.968,0.0392532470725573
515,5.976,0.0333919920867777
516,5.983,0.0474576839501743
517,5.991,0.0404017362251762
518,5.998,0.0115772986993888
519,6.006,0.0389760255529596
520,6.013,0.0323623121568435
521,6.021,0.045154105132565
522,6.028,0.0087390783796983
523,6.036,0.0372730933611453
524,6.043,0.0318210701423909
525,6.051,0.0291082595577564
526,6.058,0.0257287972236133
527,6.066,0.0312468255660814
528,6.073,0.027174309432944
529,6.081,0.0528701040947005
530,6.089,0.0426723124809286
531,6.096,0.0281577857762787
532,6.104,0.0312732276155669
533,6.111,0.0364414288023522
534,6.119,0.035959591399242
535,6.126,0.0300125297526346
536,6.134,0.0399264993344373
537,6.141,0.0487315828378494
538,6.149,0.0269564925246887
539,6.156,0.0400123059952652
540,6.164,0.0292996744165263
541,6.171,0.0389430229911027
542,6.179,0.0377747323013696
543,6.187,0.039708682426182
544,6.194,0.0379727476725108
545,6.202,0.043721793947977
546,6.209,0.0419198540705921
547,6.217,0.0430221396366114
548,6.224,0.0315174465733077
549,6.232,0.0565729915350409
550,6.239,0.0380453533085959
551,6.247,0.0360585990848126
552,6.254,0.0535961604555515
553,6.262,0.031682459382592
554,6.269,0.0353193416992187
555,6.277,0.0523816661792188
556,6.284,0.0416822356252226
557,6.292,0.0374249051456868
558,6.300,0.0297881123320079
559,6.307,0.0442828374995437
560,6.315,0.0438076006088049
561,6.322,0.0459791691789867
562,6.330,0.0480055264769983
563,6.337,0.0171943347274276
564,6.345,0.0219995077337873
565,6.352,0.0271149048216017
566,6.360,0.0434049693541511
567,6.367,0.0357813775652149
568,6.375,0.0366658462229789
569,6.382,0.0397350844756675
570,6.390,0.0494114356121008
571,6.398,0.0243228880885108
572,6.405,0.032883752634182
573,6.413,0.052348663617362
574,6.420,0.0227651671688667
575,6.428,0.0178147828903366
576,6.435,0.0391674404117294
577,6.443,0.0368506605693774
578,6.450,0.00578864934969442
579,6.458,0.03431606381877
580,6.465,0.0325009229166423
581,6.473,0.0455237338253619
582,6.480,0.0389034199168745
583,6.488,0.102512557639799
584,6.495,0.100552205465501
585,6.503,0.0601504692403253
586,6.511,0.0461243804511569
587,6.518,0.0442432344253155
588,6.526,0.0375041112941433
589,6.533,0.040150916755064
590,6.541,0.0511275688286579
591,6.548,0.0320322865382748
592,6.556,0.0392730486096714
593,6.563,0.0306593799650292
594,6.571,0.0224219405255552
595,6.578,0.0464346045326115
596,6.586,0.0313326322269092
597,6.593,0.0301115374382052
598,6.601,0.0388308142807894
599,6.608,0.029860717968093
600,6.616,0.0379001420364257
601,6.624,0.0270224976484025
602,6.631,0.0514509939348552
603,6.639,0.0518404241647662
604,6.646,0.0518668262142517
605,6.654,0.0645992145786309
606,6.661,0.0487909874491917
607,6.669,0.042784521191242
608,6.676,0.0528635035823291
609,6.684,0.0389496235034741
610,6.691,0.0313392327392806
611,6.699,0.0127323883643792
612,6.706,0.0304151610072884
613,6.714,0.0531737276637836
614,6.722,0.0399793034334083
615,6.729,0.0379133430611685
616,6.737,0.0498074663543832
617,6.744,0.0352731381126191
618,6.752,0.0394776644931839
619,6.759,0.0642757894724336
620,6.767,0.0442366339129441
621,6.774,0.031345833251652
622,6.782,0.0558997392731608
623,6.789,0.028712228815474
624,6.797,0.0383687784147932
625,6.804,0.0316362557959924
626,6.812,0.03124022505371
627,6.819,0.0143297123582515
628,6.827,0.0322567039589015
629,6.835,0.0273921263411994
630,6.842,0.044923087199567
631,6.850,0.0235176255792032
632,6.857,0.0280059739917371
633,6.865,0.0335174018218338
634,6.872,0.0479659234027701
635,6.880,0.0496424535450989
636,6.887,0.0400783111189789
637,6.895,0.035748375003358
638,6.902,0.0496160514956134
639,6.910,0.0591603923846193
640,6.917,0.0696684080798456
641,6.925,0.0525466789885032
642,6.933,0.0356295657806733
643,6.940,0.0416954366499654
644,6.948,0.0386592009591337
645,6.955,0.0360057949858416
646,6.963,0.039108035800387
647,6.970,0.0282237908999924
648,6.978,0.0324349177929286
649,6.985,0.0282831955113348
650,6.993,0.0370948795271182
651,7.000,0.035464552971389
652,7.008,0.0536291630174084
653,7.015,0.0528305010204722
654,7.023,0.0661503349859036
655,7.030,0.0653318714518533
656,7.038,0.0608303220145767
657,7.046,0.0566719992206115
658,7.053,0.0420914673922478
659,7.061,0.0343226643311414
660,7.068,0.052632485649331
661,7.076,0.0469560450099499
662,7.083,0.0336428115568899
663,7.091,0.035959591399242
664,7.098,0.0480253280141124
665,7.106,0.0412334007839693
666,7.113,0.0229235794657796
667,7.121,0.0245869085833657
668,7.128,0.0309630035341123
669,7.136,0.043279559619095
670,7.144,0.0406789577447739
671,7.151,0.0256495910751568
672,7.159,0.0360651995971839
673,7.166,0.0339200330764876
674,7.174,0.04729267114089
675,7.181,0.0192602950996674
676,7.189,0.0270753017473734
677,7.196,0.0316098537465069
678,7.204,0.0518734267266231
679,7.211,0.0431673509087816
680,7.219,0.0438340026582904
681,7.226,0.0563551746267856
682,7.234,0.0789817310358534
683,7.241,0.0749884210511725
684,7.249,0.0498404689162401
685,7.257,0.0383753789271646
686,7.264,0.0519394318503368
687,7.272,0.0609425307248901
688,7.279,0.0362500139435824
689,7.287,0.0234450199431181
690,7.294,0.0233988163565185
691,7.302,0.0337880228290601
692,7.309,0.0379793481848822
693,7.317,0.0281709868010214
694,7.324,0.0225143476987545
695,7.332,0.0246397126823367
696,7.339,0.0415766274272807
