#"+EI TIC Scan MEOH-ASA.d "
#Point,X(Minutes),Y(Counts)
0,2.095,0.205084013193671
1,2.102,0.177966901102811
2,2.110,0.177698026618126
3,2.117,0.195454945710881
4,2.125,0.221776637451213
5,2.132,0.306416084609423
6,2.140,0.308779939453947
7,2.148,0.172354146235007
8,2.155,0.143691005857207
9,2.163,0.136840308049497
10,2.170,0.153247253167061
11,2.178,0.356701214797328
12,2.185,0.624690654303818
13,2.193,0.302270936303859
14,2.200,0.152311794022427
15,2.208,0.144760902244183
16,2.215,0.137221213569468
17,2.223,0.139624279276342
18,2.230,0.135574357350771
19,2.238,0.11526873220527
20,2.245,0.118377593434444
21,2.253,0.100553455720518
22,2.261,0.113509844951288
23,2.268,0.0990578413994559
24,2.276,0.108149159912876
25,2.283,0.0977190705277939
26,2.291,0.0803094476444243
27,2.298,0.109235860955145
28,2.306,0.125760438659759
29,2.313,0.12939024420301
30,2.321,0.0838272221523896
31,2.328,0.101634555211023
32,2.336,0.0806063298879309
33,2.343,0.0732795001802579
34,2.351,0.0820627333466426
35,2.359,0.0973997820772302
36,2.366,0.145052182935926
37,2.374,0.169273292764655
38,2.381,0.0999204803711543
39,2.389,0.12525069744921
40,2.396,0.225462458512107
41,2.404,0.267205222259491
42,2.411,0.165929166361382
43,2.419,0.108574877846961
44,2.426,0.0630454651069258
45,2.434,0.0666528644431195
46,2.441,0.0734643513884791
47,2.449,0.0769261103788016
48,2.456,0.107056857318842
49,2.464,0.0898544918507505
50,2.472,0.147309608296929
51,2.479,0.177137871441698
52,2.487,0.111134787003235
53,2.494,0.0705067320569413
54,2.502,0.0601830721553808
55,2.509,0.0610681173341364
56,2.517,0.0658406394372995
57,2.524,0.0554217531557462
58,2.532,0.0604127357777161
59,2.539,0.0659022565067065
60,2.547,0.0787522162539555
61,2.554,0.0626813642422479
62,2.562,0.0721535882756385
63,2.569,0.355872185136215
64,2.577,1.34025528287948
65,2.585,0.681193506950069
66,2.592,0.182571376653046
67,2.600,0.0978479062183722
68,2.607,0.0845162130193955
69,2.615,0.0937811796375079
70,2.622,0.0917142070364901
71,2.630,0.0925320335940744
72,2.637,0.0798445188479893
73,2.645,0.0466777308517115
74,2.652,0.0436921037613524
75,2.660,0.0523072903748088
76,2.667,0.0622444432046343
77,2.675,0.0664288023725485
78,2.683,0.057690381620278
79,2.690,0.0675715189324607
80,2.698,0.0837656050829825
81,2.705,0.0642722049433022
82,2.713,0.0608496568153296
83,2.720,0.0436584944507667
84,2.728,0.0598973930154027
85,2.735,0.0935851253257582
86,2.743,0.0571246248920861
87,2.750,0.0818442728278359
88,2.758,0.071128504302776
89,2.765,0.0898264840919291
90,2.773,0.0917758241058971
91,2.780,0.128325949367798
92,2.788,0.477935599631552
93,2.796,1.29537565014411
94,2.803,0.634454159028951
95,2.811,0.265463139660801
96,2.818,0.172230912096193
97,2.826,0.107605809391741
98,2.833,0.114854217374714
99,2.841,0.0939268199833791
100,2.848,0.114316468405344
101,2.856,0.0761418931318029
102,2.863,0.0750775982965905
103,2.871,0.0774694608999364
104,2.878,0.0906891230636276
105,2.886,0.0795196288456613
106,2.894,0.122758006914107
107,2.901,0.21549729792346
108,2.909,0.133955508890895
109,2.916,0.0939492261904362
110,2.924,0.0864823576886563
111,2.931,0.097091696730195
112,2.939,0.0937979842928007
113,2.946,0.0773182190023009
114,2.954,0.382557977741226
115,2.961,8.72208662732585
116,2.969,47.8285080446126
117,2.976,100
118,2.984,26.1425205056005
119,2.991,0.360667113446435
120,2.999,0.127222443670235
121,3.007,0.126606272976165
122,3.014,0.0941452805021858
123,3.022,0.0860118273404572
124,3.029,0.0825220605913133
125,3.037,0.108765330606946
126,3.044,0.10718569300942
127,3.052,0.114344476164165
128,3.059,0.10088394727461
129,3.067,0.0961842453443823
130,3.074,0.103023740048563
131,3.082,0.0806679469573379
132,3.089,0.0785897712527915
133,3.097,0.0534219991758997
134,3.105,0.0394461275240312
135,3.112,0.0609896956094365
136,3.120,0.0732234846626152
137,3.127,0.0979431325983649
138,3.135,0.0847346735382023
139,3.142,0.048778312763315
140,3.150,0.0441906418683729
141,3.157,0.050951714847854
142,3.165,0.0666976768572337
143,3.172,0.0669497466866261
144,3.180,0.0638632916645101
145,3.187,0.0585082081778623
146,3.195,0.223008978839354
147,3.202,0.228459288705994
148,3.210,0.136056090802498
149,3.218,0.0790490984974622
150,3.225,0.0720919712062314
151,3.233,0.0847682828487879
152,3.240,0.0750495905377691
153,3.248,0.0575727490332282
154,3.255,0.0718455029286033
155,3.263,0.0553881438451606
156,3.270,0.0475235651681171
157,3.278,0.0504755829478906
158,3.285,0.0484254150021656
159,3.293,0.0655045463314429
160,3.300,0.041227420985071
161,3.308,0.0477476272386882
162,3.316,0.0620707950999418
163,3.323,0.051926384854838
164,3.331,0.0514054405407604
165,3.338,0.0319624543669586
166,3.346,0.0390876282111176
167,3.353,0.0494729051820852
168,3.361,0.0328026871315999
169,3.368,0.0202720158349147
170,3.376,0.0384490513099901
171,3.383,0.0267418081226534
172,3.391,0.0335981074821271
173,3.398,0.012687514746085
174,3.406,0.030489246252954
175,3.413,0.0421908878885264
176,3.421,0.0514950653689888
177,3.429,0.0434344323801957
178,3.436,0.0432495811719746
179,3.444,0.0385162699311614
180,3.451,0.0558978850557097
181,3.459,0.0362196337078083
182,3.466,0.0310662060846744
183,3.474,0.0225966598170892
184,3.481,0.046364043952912
185,3.489,0.0922799637646819
186,3.496,0.0686918292853159
187,3.504,0.0285567108942788
188,3.511,0.0300131143529905
189,3.519,0.0332620143762706
190,3.526,0.0236777593075944
191,3.534,0.0150849789011951
192,3.542,0.0163509295999215
193,3.549,0.0117520556014509
194,3.557,0.0292288971059919
195,3.564,0.0301587546988617
196,3.572,0.0323601645422221
197,3.579,0.04096414805215
198,3.587,0.0340518331750335
199,3.594,0.0286575388260357
200,3.602,0.0352561668043528
201,3.609,0.0353345885290527
202,3.617,0.0386058947593898
203,3.624,0.0336653261032984
204,3.632,0.0365725314689577
205,3.640,0.0331387802374565
206,3.647,0.0361188057760513
207,3.655,0.0294865684871486
208,3.662,0.0384322466546973
209,3.670,0.0458430996388344
210,3.677,0.0504587782925977
211,3.685,0.0374071626818348
212,3.692,0.0149897525212024
213,3.700,0.039502143041674
214,3.707,0.0496185455279563
215,3.715,0.0092929743769338
216,3.722,0.0469914177505109
217,3.730,0.0301531531470974
218,3.737,0.0385610823452756
219,3.745,0.0360235793960586
220,3.753,0.0381689737217763
221,3.760,0.0469914177505109
222,3.768,0.0357715095666662
223,3.775,0.0373007331983135
224,3.783,0.0224174101606323
225,3.790,0.0471986751657891
226,3.798,0.0396533849393094
227,3.805,0.0334804748950773
228,3.813,0.050890097778447
229,3.820,0.0438825565213378
230,3.828,0.0524025167548015
231,3.835,0.0573486869626571
232,3.843,0.0323433598869293
233,3.851,0.0648659694303155
234,3.858,0.0334412640327274
235,3.866,0.0477980412045667
236,3.873,0.107432161287048
237,3.881,0.160954988394705
238,3.888,0.10831160491404
239,3.896,0.100783119342853
240,3.903,0.0896360313319437
241,3.911,0.0774750624517006
242,3.918,0.0605807823306444
243,3.926,0.0592252068036896
244,3.933,0.0441402279024945
245,3.941,0.0569229690285722
246,3.948,0.0515846901972172
247,3.956,0.0627093720010692
248,3.964,0.069201570495865
249,3.971,0.106463092831829
250,3.979,0.0904650609930565
251,3.986,0.0512317924360678
252,3.994,0.0508116760537471
253,4.001,0.0524473291689157
254,4.009,0.0466385199893615
255,4.016,0.0296322088330198
256,4.024,0.0322985474728151
257,4.031,0.0536348581429422
258,4.039,0.0377880682018055
259,4.046,0.0386395040699755
260,4.054,0.0371158819900924
261,4.062,0.0388075506229038
262,4.069,0.0250949519039562
263,4.077,0.04754036982341
264,4.084,0.0487447034527293
265,4.092,0.0276436579567018
266,4.099,0.0383706295852902
267,4.107,0.0265065429485538
268,4.114,0.0341918719691404
269,4.122,0.0297162321094839
270,4.129,0.0313854945352381
271,4.137,0.0374631781994775
272,4.144,0.0485430475892154
273,4.152,0.214993158264675
274,4.159,0.222829729182897
275,4.167,0.125228291242153
276,4.175,0.081440961100808
277,4.182,0.0668321140995763
278,4.190,0.0438097363484022
279,4.197,0.0435576665190098
280,4.205,0.0470362301646251
281,4.212,0.0430871361708106
282,4.220,0.0448068125624433
283,4.227,0.0330659600645209
284,4.235,0.0408129061545145
285,4.242,0.0460111461917626
286,4.250,0.0312174479823099
287,4.257,0.0353457916325812
288,4.265,0.0534444053829568
289,4.272,0.0379281069959124
290,4.280,0.0254310450098128
291,4.288,0.051052542779611
292,4.295,0.0186643704785675
293,4.303,0.0430423237566964
294,4.310,0.0337437478279983
295,4.318,0.0428350663414182
296,4.325,0.0468737851634611
297,4.333,0.0588106919731332
298,4.340,0.106827193696507
299,4.348,0.0964251120702461
300,4.355,0.0361636181901655
301,4.363,0.0273467757131952
302,4.370,0.0447283908377434
303,4.378,0.0492600462150427
304,4.386,0.0369534369889284
305,4.393,0.0371046788865639
306,4.401,0.0116288214626369
307,4.408,0.0304220276317827
308,4.416,0.128202715228984
309,4.423,0.175194132979495
310,4.431,0.0527106021018367
311,4.438,0.0470474332681537
312,4.446,0.0381745752735406
313,4.453,0.0327298669586644
314,4.461,0.0290160381389494
315,4.468,0.0510749489866681
316,4.476,0.10656952231535
317,4.483,0.120287722586062
318,4.491,0.0964811275878889
319,4.499,0.126505445044408
320,4.506,0.131412404389914
321,4.514,0.0601718690518522
322,4.521,0.155409452148072
323,4.529,0.335964270165978
324,4.536,0.182492954928346
325,4.544,0.101477711761623
326,4.551,0.0855805078546079
327,4.559,0.0550352460840112
328,4.566,0.0552481050510537
329,4.574,0.0536404596947065
330,4.581,0.0635103939033607
331,4.589,0.0590179493884114
332,4.597,0.0685461889394448
333,4.604,0.0483357901739371
334,4.612,0.0510413396760824
335,4.619,0.0518591662336667
336,4.627,0.334491062051974
337,4.634,2.1228760876253
338,4.642,1.71573850074243
339,4.649,0.4178421523044
340,4.657,0.243432236571904
341,4.664,0.194609111394475
342,4.672,0.138946491512865
343,4.679,0.128880502992461
344,4.687,0.113593868227752
345,4.694,0.101634555211023
346,4.702,0.0901345694389643
347,4.710,0.0761138853729816
348,4.717,0.0890646730519876
349,4.725,0.242995315534291
350,4.732,0.365114745547271
351,4.740,0.199275204014117
352,4.747,0.0840064718088464
353,4.755,0.0741309360484279
354,4.762,0.202608127313861
355,4.770,1.27761873105135
356,4.777,1.19301849475549
357,4.785,0.344484230399442
358,4.792,0.215323649818767
359,4.800,0.146250915013481
360,4.808,0.118052703432116
361,4.815,0.103001333841506
362,4.823,0.101152821759295
363,4.830,0.103499871948527
364,4.838,0.223625149533424
365,4.845,0.22443177298748
366,4.853,0.105393196444852
367,4.860,0.0922071435917464
368,4.868,0.07535207433304
369,4.875,0.0699353737769852
370,4.883,0.0565364619568371
371,4.890,0.101203235725174
372,4.898,0.7168137746191
373,4.905,1.22107106599099
374,4.913,0.354309352193982
375,4.921,0.119940426376677
376,4.928,0.0991922786417985
377,4.936,0.0521336422701162
378,4.943,0.0840120733606107
379,4.951,0.0888742202920022
380,4.958,0.0764443769270738
381,4.966,0.0680868616947741
382,4.973,0.0505203953620048
383,4.981,0.068428556352395
384,4.988,0.0703666932628344
385,4.996,0.0385610823452756
386,5.003,0.0546375359087476
387,5.011,0.0509125039855041
388,5.019,0.0629950511410473
389,5.026,0.0387291288982039
390,5.034,0.0282094146848937
391,5.041,0.0460111461917626
392,5.049,0.0666920753054694
393,5.056,0.0431375501366891
394,5.064,0.0402751571851441
395,5.071,0.0570518047191505
396,5.079,0.0400735013216301
397,5.086,0.0437761270378165
398,5.094,0.0506044186384689
399,5.101,0.048150938965716
400,5.109,0.0261480436356401
401,5.116,0.029150475381292
402,5.124,0.0240642663793295
403,5.132,0.0508172776055114
404,5.139,0.0334188578256703
405,5.147,0.0516911196807384
406,5.154,0.0257223257015551
407,5.162,0.0471314565446178
408,5.169,0.0401407199428014
409,5.177,0.0369086245748142
410,5.184,0.0314303069493523
411,5.192,0.0391324406252318
412,5.199,0.0247476556945711
413,5.207,0.0508508869160971
414,5.214,0.0462688175729193
415,5.222,0.0478484551704451
416,5.229,0.0525873679630226
417,5.237,0.0356370723243236
418,5.245,0.0389419878652464
419,5.252,0.0425773949602615
420,5.260,0.0261032312215259
421,5.267,0.0383314187229403
422,5.275,0.0416587404709202
423,5.282,0.0416195296085703
424,5.290,0.0317215876410947
425,5.297,0.0294585607283272
426,5.305,0.036477305088965
427,5.312,0
428,5.320,0.0249773193169064
429,5.327,0.0283662581342934
430,5.335,0.0280805789943153
431,5.343,0.0352673699078814
432,5.350,0.0271115105390956
433,5.358,0.0220365046406616
434,5.365,0.0117520556014509
435,5.373,0.0293633343483345
436,5.380,0.0303548090106114
437,5.388,0.0365893361242505
438,5.395,0.0484310165539298
439,5.403,0.0313462836728882
440,5.410,0.0238233996534656
441,5.418,0.0192749396208735
442,5.425,0.0269098546755817
443,5.433,0.0450980932541857
444,5.440,0.0219076689500832
445,5.448,0.0361916259489869
446,5.456,0.0472658937869604
447,5.463,0.0853732504393297
448,5.471,0.152154950573028
449,5.478,0.214993158264675
450,5.486,0.118652069470893
451,5.493,0.0497025688044205
452,5.501,0.0437705254860523
453,5.508,0.0379000992370911
454,5.516,0.0395917678699024
455,5.523,0.0927448925611169
456,5.531,0.218533338979698
457,5.538,0.257010398048509
458,5.546,0.10397600384849
459,5.554,0.0522288686501089
460,5.561,0.0232464398217452
461,5.569,0.0338613804150481
462,5.576,0.0663895915101985
463,5.584,0.0462688175729193
464,5.591,0.048089321896309
465,5.599,0.0207425461831138
466,5.606,0.0373623502677206
467,5.614,0.039888650113409
468,5.621,0.075553730196554
469,5.629,0.0641489708044881
470,5.636,0.0509629179513826
471,5.644,0.178577470245117
472,5.651,0.267171612948906
473,5.659,0.117190064460417
474,5.667,0.0271899322637954
475,5.674,0.0454397879118065
476,5.682,0.0407288828780504
477,5.689,0.0420452475426553
478,5.697,0.065078828397358
479,5.704,0.131423607493442
480,5.712,0.493042984739805
481,5.719,0.414251557623499
482,5.727,0.254114395786378
483,5.734,0.212057945140195
484,5.742,0.0766572358941163
485,5.749,0.0658182332302424
486,5.757,0.0573991009285356
487,5.765,0.059902994567167
488,5.772,0.0518815724407238
489,5.780,0.0678235887618532
490,5.787,0.0346848085243967
491,5.795,0.0255710838039197
492,5.802,0.0366173438830719
493,5.810,0.0310886122917315
494,5.817,0.0329539290292354
495,5.825,0.0391996592464031
496,5.832,0.0616954911317353
497,5.840,0.450712058057171
498,5.847,1.78683339573462
499,5.855,1.25391296398494
500,5.862,0.263508198095069
501,5.870,0.0882132371838176
502,5.878,0.07453984932722
503,5.885,0.0586930593860834
504,5.893,0.0615218430270427
505,5.900,0.0543518567687695
506,5.908,0.0392108623499316
507,5.915,0.049327264836214
508,5.923,0.0718174951697819
509,5.930,0.0694872496358431
510,5.938,0.0419836304732482
511,5.945,0.0611745468176576
512,5.953,0.0731282582826225
513,5.960,0.0258511613921335
514,5.968,0.0612697731976503
515,5.975,0.0543686614240623
516,5.983,0.0348360504220321
517,5.991,0.0450364761847786
518,5.998,0.041289038054478
519,6.006,0.0715038082709825
520,6.013,0.057852826621442
521,6.021,0.0927785018717025
522,6.028,0.106345460244779
523,6.036,0.0750831998483548
524,6.043,0.0558530726415955
525,6.051,0.0625973409657837
526,6.058,0.0421068646120623
527,6.066,0.0576735769649852
528,6.073,0.0547159576334474
529,6.081,0.0483245870704086
530,6.089,0.047601986892817
531,6.096,0.0451429056682999
532,6.104,0.0734755544920076
533,6.111,0.0455574204988563
534,6.119,0.0571190233403218
535,6.126,0.106530311453
536,6.134,0.219726469505488
537,6.141,0.23267165563273
538,6.149,0.106429483521243
539,6.156,0.0819955147254713
540,6.164,0.071089293440426
541,6.171,0.0870313097615554
542,6.179,0.0707083879204553
543,6.186,0.0552649097063465
544,6.194,0.0401799308051514
545,6.202,0.0601942752589093
546,6.209,0.0912940906541694
547,6.217,0.133238510265068
548,6.224,0.13352979095681
549,6.232,0.105073907994288
550,6.239,0.0636336280421748
551,6.247,0.0808023841996805
552,6.254,0.0776319059011003
553,6.262,0.102278733663915
554,6.269,0.112854463394868
555,6.277,0.0808023841996805
556,6.284,0.0527722191712437
557,6.292,0.0600318302577453
558,6.300,0.0414122721932921
559,6.307,0.0397934237334163
560,6.315,0.0650340159832438
561,6.322,0.0633087380398468
562,6.330,0.0836815818065184
563,6.337,0.09666597879611
564,6.345,0.0750607936412977
565,6.352,0.0603063062941948
566,6.360,0.060451946640066
567,6.367,0.371220436970331
568,6.375,0.874077340401147
569,6.382,0.412027741573082
570,6.390,0.159694639247743
571,6.397,0.121251189489517
572,6.405,0.136784292531854
573,6.413,0.151107460393108
574,6.420,0.13770854857296
575,6.428,0.131647669564013
576,6.435,0.138011032368231
577,6.443,0.109375899749252
578,6.450,0.08927753201903
579,6.458,0.118399999641501
580,6.465,0.157207550264404
581,6.473,0.122248265703558
582,6.480,0.147326412952222
583,6.488,0.17968097594268
584,6.495,0.160775738738248
585,6.503,0.15228938781537
586,6.511,0.221048435721857
587,6.518,0.273204484199031
588,6.526,0.258102700642543
589,6.533,0.195813445023794
590,6.541,0.207066962518225
591,6.548,0.968883604011518
592,6.556,5.98711777531459
593,6.563,13.6912904160362
594,6.571,8.11302990399613
595,6.578,3.70107968789946
596,6.586,10.5928760809034
597,6.593,11.8199520103857
598,6.601,2.83411071668718
599,6.608,5.45164303596039
600,6.616,17.8998874984344
601,6.624,27.9520121782217
602,6.631,8.46162567339055
603,6.639,1.82118211115316
604,6.646,1.28047552245113
605,6.654,1.01726980815133
606,6.661,0.881527404247634
607,6.669,0.851122181271144
608,6.676,0.810903039603643
609,6.684,0.836362092372277
610,6.691,0.946835896267328
611,6.699,0.611459789036598
612,6.706,0.45133943185477
613,6.714,0.413579371411786
614,6.722,0.363131796222717
615,6.729,0.354774280990417
616,6.737,0.317916070381481
617,6.744,0.296635775228997
618,6.752,0.266140927424279
619,6.759,0.315199317775808
620,6.767,0.398214314922377
621,6.774,0.329326431325311
622,6.782,0.252842843535888
623,6.789,0.213200661700107
624,6.797,0.172852684342027
625,6.804,0.160887769773534
626,6.812,0.156400926810349
627,6.819,0.162204134438139
628,6.827,0.156479348535049
629,6.835,0.169122050867019
630,6.842,0.192805411726378
631,6.850,0.197460301242491
632,6.857,0.176342451091171
633,6.865,0.516216604388614
634,6.872,3.58356473343672
635,6.880,7.30252457456775
636,6.887,2.55193254656178
637,6.895,1.52330279143249
638,6.902,9.56993750236666
639,6.910,27.1864593017016
640,6.917,11.7931989991595
641,6.925,2.0567217612892
642,6.932,1.39944127882082
643,6.940,3.27016911532901
644,6.948,8.50838742751872
645,6.955,5.08572166695907
646,6.963,1.57565489422142
647,6.970,1.0136848150222
648,6.978,0.813048433929361
649,6.985,0.667985047889907
650,6.993,0.578012923452106
651,7.000,0.554262343971576
652,7.008,0.475879830134063
653,7.015,0.4957877451043
654,7.023,0.551820067402352
655,7.030,0.680202032287793
656,7.038,0.602301251902007
657,7.046,0.413652191584722
658,7.053,0.339745317606865
659,7.061,0.300456033532233
660,7.068,0.281858881674837
661,7.076,0.257340889602601
662,7.083,0.251655314561861
663,7.091,0.268207900025297
664,7.098,0.280027174247919
665,7.106,0.26612972432075
666,7.113,0.254450488892235
667,7.121,0.209884543055655
668,7.128,0.218174839666784
669,7.136,0.200798826094
670,7.143,0.199051141943546
671,7.151,0.229898887509413
672,7.159,0.493211031292733
673,7.166,0.844506748637535
674,7.174,0.640218155794391
675,7.181,0.348965471810863
676,7.189,0.282026928227765
677,7.196,0.247678212809225
678,7.204,0.250680644554877
679,7.211,0.249627552823193
680,7.219,0.351721435278887
681,7.226,0.586695328686734
682,7.234,0.846288042098574
683,7.241,0.578158563797978
684,7.249,0.322963068521094
685,7.257,0.245644849518793
686,7.264,0.221715020381806
687,7.272,0.208428139596944
688,7.279,0.188150522210265
689,7.287,0.195225282088545
690,7.294,0.187287883238566
691,7.302,0.137518095812975
692,7.309,0.150754562631959
693,7.317,0.137238018224761
694,7.324,0.133316931989768
695,7.332,0.130790632144079
696,7.339,0.120024449653141
697,7.347,0.135540748040185
698,7.354,0.122701991396465
699,7.362,0.116254605315783
700,7.370,0.144301574999513
701,7.377,0.145444291559425
702,7.385,0.119273841716728
703,7.392,0.104597776094325
704,7.400,0.130768225937022
705,7.407,0.165800330670804
