#"+EI TIC Scan MEOH-PEEK-1Week.d "
#Point,X(Minutes),Y(Counts)
0,2.095,0.18899543366106
1,2.102,0.183657217522271
2,2.110,0.177842262926904
3,2.117,0.172466409541544
4,2.125,0.140136014736237
5,2.132,0.155906021049885
6,2.140,0.152336755499978
7,2.148,0.134804071471877
8,2.155,0.1611187797001
9,2.163,0.134264604271012
10,2.170,0.131454356526973
11,2.178,0.124616923399735
12,2.185,0.119749172843096
13,2.193,0.106613773789484
14,2.200,0.104581362474599
15,2.208,0.127182529041056
16,2.215,0.106783141399058
17,2.223,0.100955641054834
18,2.230,0.0888866306540946
19,2.238,0.0898651990649653
20,2.246,0.095661335037046
21,2.253,0.0878829707455092
22,2.261,0.0853800938484743
23,2.268,0.0823063853784315
24,2.276,0.0924182589574294
25,2.283,0.0890371796403824
26,2.291,0.111318429610978
27,2.298,0.0775766380592228
28,2.306,0.0911699569461264
29,2.313,0.0898275618183934
30,2.321,0.0735682712993099
31,2.328,0.0913581431789861
32,2.336,0.0865782128643482
33,2.343,0.0801924266959735
34,2.351,0.063437579097026
35,2.359,0.0757512316004831
36,2.366,0.0841882477070292
37,2.374,0.0596675815654021
38,2.381,0.0665740163113554
39,2.389,0.137884052816348
40,2.396,0.227949983863031
41,2.404,0.284976685293967
42,2.411,0.145010038167304
43,2.419,0.131711544378548
44,2.426,0.103458517951869
45,2.434,0.0985907673952297
46,2.441,0.0986472232650876
47,2.449,0.0737062745367404
48,2.457,0.0924245318318581
49,2.464,0.106682775408199
50,2.472,0.078768484200668
51,2.479,0.0986660418883736
52,2.487,0.0941683909230252
53,2.494,0.089595465464533
54,2.502,0.0833351367847316
55,2.509,0.0834982315198767
56,2.517,0.0852232719877579
57,2.524,0.076359700420063
58,2.532,0.0808698971342687
59,2.539,0.0873372306702159
60,2.547,0.0821370177688577
61,2.554,0.0753372218881917
62,2.562,0.0993623309499547
63,2.570,0.076911713369785
64,2.577,0.0921987083524264
65,2.585,0.0871051343163555
66,2.592,0.0814219100839906
67,2.600,0.0866472144830634
68,2.607,0.0843764339398889
69,2.615,0.0696979077768274
70,2.622,0.0781035595112302
71,2.630,0.0723952437811507
72,2.637,0.0819613772848553
73,2.645,0.0928134500464349
74,2.652,0.0826263019742931
75,2.660,0.0705447458246964
76,2.667,0.0604705094922704
77,2.675,0.0625154665560132
78,2.683,0.0677344980806572
79,2.690,0.0725771571395818
80,2.698,0.0841882477070292
81,2.705,0.0969033641739205
82,2.713,0.0755379538699087
83,2.720,0.0868416735903518
84,2.728,0.102197670191708
85,2.735,0.102592861280714
86,2.743,0.0890309067659537
87,2.750,0.119391619000662
88,2.758,0.082482025862434
89,2.765,0.0745782040823239
90,2.773,0.104223808632165
91,2.781,0.076378519043349
92,2.788,0.0833414096591602
93,2.796,0.074045009755888
94,2.803,0.101012096924692
95,2.811,0.105679115499614
96,2.818,0.0625091936815845
97,2.826,0.0828207610815816
98,2.833,0.0587015589033886
99,2.841,0.0735243611783093
100,2.848,0.0656958138913431
101,2.856,0.0728280721167281
102,2.863,0.0712786721328494
103,2.871,0.0670570276423621
104,2.878,0.0576602617482313
105,2.886,0.0817857368008529
106,2.894,0.0477428472765218
107,2.901,0.0789127603125271
108,2.909,0.063180391245451
109,2.916,0.0763032445502051
110,2.924,0.0797784169836821
111,2.931,0.0649493418343328
112,2.939,0.066065913482634
113,2.946,0.101118735789979
114,2.954,1.78921824616077
115,2.961,20.3746976082471
116,2.969,67.160881351403
117,2.976,100
118,2.984,9.53200279393827
119,2.992,0.223220236543822
120,2.999,0.149865242975086
121,3.007,0.136039827734322
122,3.014,0.109279745421664
123,3.022,0.091176229820555
124,3.029,0.110553138930682
125,3.037,0.127916455349209
126,3.044,0.117026745341058
127,3.052,0.104562543851313
128,3.059,0.0833037724125883
129,3.067,0.107291244227779
130,3.074,0.0815599133214211
131,3.082,0.0769995336117862
132,3.089,0.101633111493129
133,3.097,0.0815787319447071
134,3.105,0.0705447458246964
135,3.112,0.102755956015859
136,3.120,0.11196453567713
137,3.127,0.121718855413694
138,3.135,0.0883408905788013
139,3.142,0.0827643052117236
140,3.150,0.0900784767955397
141,3.157,0.091747061393563
142,3.165,0.0885541683093757
143,3.172,0.080368067179976
144,3.180,0.0986158588929443
145,3.187,0.0923429844642855
146,3.195,0.0713915838725653
147,3.203,0.0738630963974568
148,3.210,0.0910507723319818
149,3.218,0.0715609514821391
150,3.225,0.0700680073681183
151,3.233,0.061561989642857
152,3.240,0.0735431798015952
153,3.248,0.077978102022657
154,3.255,0.130689065846677
155,3.263,0.162994369154269
156,3.270,0.0981579390596522
157,3.278,0.0811270849858437
158,3.285,0.0600439540311216
159,3.293,0.0677721353272292
160,3.300,0.0711971247652769
161,3.308,0.0698045466421146
162,3.316,0.0957491552790472
163,3.323,0.0661662794734926
164,3.331,0.0629545677660193
165,3.338,0.0728029806190135
166,3.346,0.0580052698418075
167,3.353,0.0517888512830067
168,3.361,0.0455097039799193
169,3.368,0.0514877533104311
170,3.376,0.0535515289974598
171,3.383,0.0380763477819586
172,3.391,0.0535515289974598
173,3.398,0.0393622870398337
174,3.406,0.0458609849479242
175,3.413,0.0503147257922719
176,3.421,0.0490225136599682
177,3.429,0.0680606875509475
178,3.436,0.0575661686318014
179,3.444,0.0609158835767052
180,3.451,0.0527987840660207
181,3.459,0.0535013460020305
182,3.466,0.0469336464752248
183,3.474,0.0619885451040058
184,3.481,0.0672891239962225
185,3.489,0.12449773878559
186,3.496,0.063456397720312
187,3.504,0.053382161387886
188,3.511,0.0395002902772642
189,3.519,0.0582248204468106
190,3.527,0.0693340810599652
191,3.534,0.0389294587042562
192,3.542,0.0433016521810314
193,3.549,0.0560794973922093
194,3.557,0.0531939751550262
195,3.564,0.0411186918798581
196,3.572,0.0507036440068487
197,3.579,0.0496811654749773
198,3.587,0.0376748838185245
199,3.594,0.0433518351764607
200,3.602,0.0595421240768289
201,3.609,0.0580178155906648
202,3.617,0.0300031583922748
203,3.624,0.0446189558110497
204,3.632,0.0550068358649086
205,3.640,0.0448886894114821
206,3.647,0.0447444132996229
207,3.655,0.0373298757249483
208,3.662,0.0458986221944961
209,3.670,0.0405792246789935
210,3.677,0.0488719646736804
211,3.685,0.0473225646898017
212,3.692,0.0485520480778188
213,3.700,0.0481756756120992
214,3.707,0.0299216110247023
215,3.715,0.0344004433667646
216,3.722,0.0360313907182159
217,3.730,0.0266848078195143
218,3.738,0.0303481664858511
219,3.745,0.0589462010061063
220,3.753,0.0261014304976491
221,3.760,0.0371291437432312
222,3.768,0.029300596456265
223,3.775,0.0381704408983885
224,3.783,0.045697890212779
225,3.790,0.0438097550097528
226,3.798,0.0529932431733092
227,3.805,0.0499007160799804
228,3.813,0.0363952174350781
229,3.820,0.0355421065127805
230,3.828,0.0374804247112361
231,3.835,0.0433330165531747
232,3.843,0.0492044270183993
233,3.851,0.0393058311699758
234,3.858,0.0319979324605883
235,3.866,0.057867266604377
236,3.873,0.0398515712452691
237,3.881,0.047868304765095
238,3.888,0.0340052522777591
239,3.896,0.0447255946763369
240,3.903,0.0439038481261826
241,3.911,0.0397574781288392
242,3.918,0.0276571033559565
243,3.926,0.0463628149022169
244,3.933,0.0409305056469984
245,3.941,0.0354731048940653
246,3.949,0.0221181552354508
247,3.956,0.0509169217374231
248,3.964,0.0528364213125927
249,3.971,0.103000598118577
250,3.979,0.0543419111754708
251,3.986,0.0664297401994962
252,3.994,0.0358871146063567
253,4.001,0.0481568569888133
254,4.009,0.0443868594571894
255,4.016,0.0534260715088866
256,4.024,0.0501955411781274
257,4.031,0.0417773436948673
258,4.039,0.0482321314819572
259,4.046,0.0233037285024673
260,4.054,0.0542289994357549
261,4.062,0.0366649510355104
262,4.069,0.0424673598820198
263,4.077,0.0333215089650353
264,4.084,0.0588395621408191
265,4.092,0.0968092710574906
266,4.099,0.108821825588372
267,4.107,0.0754062235069069
268,4.114,0.0463189047812163
269,4.122,0.0455975242219205
270,4.129,0.0356299267547817
271,4.137,0.0253110483196381
272,4.144,0.0303042563648505
273,4.152,0.0293946895726949
274,4.160,0.0506534610114195
275,4.167,0.0252357738264942
276,4.175,0.0461181727994992
277,4.182,0.0333152360906067
278,4.190,0.0447883234206235
279,4.197,0.0417773436948673
280,4.205,0.0249534944772045
281,4.212,0.0455787055986345
282,4.220,0.0310256369241462
283,4.227,0.0391239178115447
284,4.235,0.0495619808608328
285,4.242,0.0326754028988835
286,4.250,0.0421850805327301
287,4.257,0.0327255858943127
288,4.265,0.0396382935146947
289,4.273,0.0298588822804157
290,4.280,0.0342373486316195
291,4.288,0.0387161809736818
292,4.295,0.0356173810059244
293,4.303,0.0466011841305059
294,4.310,0.0331897786020335
295,4.318,0.0452399703794869
296,4.325,0.0342185300083335
297,4.333,0.0313894636410084
298,4.340,0.0337982474216134
299,4.348,0.0283220280453943
300,4.355,0.0323241219308786
301,4.363,0.0388980943321129
302,4.370,0.0401965793388453
303,4.378,0.0555776674379166
304,4.386,0.0366398595377958
305,4.393,0.0447632319229089
306,4.401,0.0258254240227881
307,4.408,0.0482885873518151
308,4.416,0.154350348191577
309,4.423,0.118337776096647
310,4.431,0.0659906389894901
311,4.438,0.0564119597369282
312,4.446,0.0431134659481716
313,4.453,0.0442739477174735
314,4.461,0.0550319273626233
315,4.468,0.0473225646898017
316,4.476,0.0277135592258144
317,4.484,0.0327004943965981
318,4.491,0.0323931235495938
319,4.499,0.0417710708204387
320,4.506,0.0349022733210573
321,4.514,0.0324621251683091
322,4.521,0.0432828335577454
323,4.529,0.02750028149524
324,4.536,0.0409618700191417
325,4.544,0.0425238157518777
326,4.551,0.0321986644423054
327,4.559,0.0473037460665157
328,4.566,0.029300596456265
329,4.574,0.0312953705245785
330,4.581,0.0432953793066027
331,4.589,0.0432451963111735
332,4.597,0.0449388724069113
333,4.604,0.0490036950366822
334,4.612,0.0320857527025895
335,4.619,0.0499948091964103
336,4.627,0.030385803732423
337,4.634,0.0397135680078386
338,4.642,0.03909882631383
339,4.649,0.0506597338858481
340,4.657,0.033823338919328
341,4.664,0.0221997026030233
342,4.672,0.0328196790107426
343,4.679,0.0279268369563888
344,4.687,0.035184552670347
345,4.695,0.0399393914872703
346,4.702,0.0238996515731899
347,4.710,0.0232660912558953
348,4.717,0.0245708491370563
349,4.725,0.0258442426460741
350,4.732,0.0196842799571312
351,4.740,0.037812887055955
352,4.747,0.0304171681045663
353,4.755,0.0221934297285947
354,4.762,0.030937816682145
355,4.770,0.0185237981878293
356,4.777,0.0191259941329805
357,4.785,0.0201610184137092
358,4.792,0.0282091163056784
359,4.800,0.0371228708688025
360,4.808,0.0242258410434801
361,4.815,0.029852609405987
362,4.823,0.031966568088445
363,4.830,0.0415389744665783
364,4.838,0.0567256034583611
365,4.845,0.067427127233653
366,4.853,0.0204119333908556
367,4.860,0.0287046733855425
368,4.868,0.0281526604358205
369,4.875,0.00772190842167893
370,4.883,0.0355483793872092
371,4.890,0.0324872166660237
372,4.898,0.0477114829043785
373,4.906,0.0289179511161169
374,4.913,0.0260324288789338
375,4.921,0.0241003835549069
376,4.928,0.0372671469806617
377,4.936,0.0364955834259366
378,4.943,0.0273246410112375
379,4.951,0.0204621163862849
380,4.958,0.0208196702287184
381,4.966,0.01529326785707
382,4.973,0.0227328969294593
383,4.981,0.0207443957355745
384,4.988,0.0180282411079653
385,4.996,0.044135944480043
386,5.003,0.0275128272440973
387,5.011,0.0308060863191431
388,5.019,0.0154312710945005
389,5.026,0.0250287689703484
390,5.034,0.0312263689058633
391,5.041,0.022205975477452
392,5.049,0.0274877357463827
393,5.056,0.0367904085240836
394,5.064,0.0458484391990668
395,5.071,0.037536880581094
396,5.079,0.0245206661416271
397,5.086,0.0311887316592913
398,5.094,0.0234605503631837
399,5.101,0.0174699552838146
400,5.109,0.0222498855984526
401,5.116,0.0268541754290881
402,5.124,0.0151050816242103
403,5.132,0.030900179435573
404,5.139,0.0142331520786267
405,5.147,0.0218546945094471
406,5.154,0.0161150144072243
407,5.162,0.0134490427750444
408,5.169,0.0192326329982677
409,5.177,0.0340554352731884
410,5.184,0.0226137123153148
411,5.192,0.00841192460883139
412,5.199,0.0373800587203775
413,5.207,0.0136999577521907
414,5.214,0.0103502428072869
415,5.222,0.00728280721167282
416,5.230,0.0203742961442836
417,5.237,0.0347329057114835
418,5.245,0.0121819221404553
419,5.252,0.022720351180602
420,5.260,0.0196090054639873
421,5.267,0.0236236450983289
422,5.275,0.0148290751493493
423,5.282,0.00823628412482895
424,5.290,0.012169376391598
425,5.297,0.0165478427428018
426,5.305,0.0105258832912894
427,5.312,0.0146095245443462
428,5.320,0.0207506686100032
429,5.327,0.0263460726003668
430,5.335,0.022187156854166
431,5.343,0.0231845438883228
432,5.350,0.0214783220437276
433,5.358,0.0290183171069754
434,5.365,0.0294072353215522
435,5.373,0.00792891327782467
436,5.380,0.0252420467009228
437,5.388,0.0178714192472488
438,5.395,0.00897021043298202
439,5.403,0.0225509835710282
440,5.410,0.0166419358592317
441,5.418,0.0379697089166715
442,5.425,0.036175666830075
443,5.433,0.021710418397588
444,5.441,0.00992368734613815
445,5.448,0.0282781179243937
446,5.456,0.0183857949503988
447,5.463,0.0225572564454569
448,5.471,0.0221181552354508
449,5.478,0.0411500562520014
450,5.486,0.0229336289111764
451,5.493,0.032499762414881
452,5.501,0.0314961025062956
453,5.508,0.032004205335017
454,5.516,0.0266785349450857
455,5.523,0.0232598183814667
456,5.531,0.039908027115127
457,5.538,0.0347203599626262
458,5.546,0.0206753941168593
459,5.554,0.0345572652274811
460,5.561,0.0254929616780692
461,5.569,0.0239561074430478
462,5.576,0.0178651463728201
463,5.584,0.0358996603552141
464,5.591,0.0230967236463215
465,5.599,0.00336226069376109
466,5.606,0.00829273999468687
467,5.614,0.021672781151016
468,5.621,0.0176518686422457
469,5.629,0.000759017805867709
470,5.636,0.0233476386234679
471,5.644,0.00382018052705318
472,5.652,0.0123701083733151
473,5.659,0.0120627375263108
474,5.667,0.018254064587397
475,5.674,0.0149921698844944
476,5.682,0.030385803732423
477,5.689,0.0147161634096334
478,5.697,0.0137626864964773
479,5.704,0.0254678701803545
480,5.712,0.00103502428072869
481,5.719,0.0117177294327346
482,5.727,0.0257564224040729
483,5.734,0.0193957277334129
484,5.742,0.0250413147192058
485,5.749,0.0092023067868424
486,5.757,0.0263648912236528
487,5.765,0.0181536985965384
488,5.772,0.0149168953913505
489,5.780,0.0186994386718318
490,5.787,0.016158924528225
491,5.795,0.0221369738587367
492,5.802,0.0309127251844303
493,5.810,0.00849347197640395
494,5.817,0.0256497835387857
495,5.825,0.0165792071149451
496,5.832,0.00743962907238928
497,5.840,0.0177835990052476
498,5.847,0.0166921188546609
499,5.855,0.0298400636571297
500,5.862,0.0184297050713994
501,5.870,0.0365457664213659
502,5.878,0.0297522434151285
503,5.885,0.00957240637813326
504,5.893,0.0157511876903621
505,5.900,0.0155316370853591
506,5.908,0.0248970386073466
507,5.915,0.019521185221986
508,5.923,0.0125959318527468
509,5.930,0.024282296913338
510,5.938,0.0157323690670762
511,5.945,0.03540410327535
512,5.953,0.0133486767841858
513,5.960,0.0268855398012314
514,5.968,0.0213215001830111
515,5.976,0.0247402167466301
516,5.983,0.036984867631372
517,5.991,0.0297647891639858
518,5.998,0.0139759642270517
519,6.006,0.00312389146547206
520,6.013,0.0323993964240225
521,6.021,0.0194459107288421
522,6.028,0.027243093643665
523,6.036,0.0259947916323619
524,6.043,0.00936540152198752
525,6.051,0.0174511366605287
526,6.058,0.024338752783196
527,6.066,0.0310820927940041
528,6.073,0.020092016794994
529,6.081,0.0182415188385397
530,6.089,0.0214845949181562
531,6.096,0.0220993366121648
532,6.104,0.030918998058859
533,6.111,0.0313455535200078
534,6.119,0.0189628993978354
535,6.126,0.0135619545147602
536,6.134,0.00334344207047512
537,6.141,0.0123951998710297
538,6.149,0.0278641082121022
539,6.156,0.00749608494224721
540,6.164,0.0197658273247037
541,6.171,0.03273813164317
542,6.179,0.0091709424146991
543,6.187,0.020330386023283
544,6.194,0.0153434508524993
545,6.202,0
546,6.209,0.0141453318366255
547,6.217,0.0226889868084587
548,6.224,0.0115797261953041
549,6.232,0.025900698515932
550,6.239,0.034613721097339
551,6.247,0.0258316968972168
552,6.254,0.0216225981555867
553,6.262,0.0288740409951163
554,6.269,0.0206377568702873
555,6.277,0.0286733090133992
556,6.284,0.0269984515409473
557,6.292,0.0251667722077789
558,6.300,0.00746472057010392
559,6.307,0.0379446174189568
560,6.315,0.020073198171708
561,6.322,0.0116738193117339
562,6.330,0.0154500897177865
563,6.337,0.0106137035332906
564,6.345,0.00776581854267954
565,6.352,0.00892002743755275
566,6.360,0.0252295009520655
567,6.367,0.038622087857252
568,6.375,0.00430319185805991
569,6.382,0.00982959422970827
570,6.390,0.0128970298253224
571,6.398,0.0245394847649131
572,6.405,0.0176895058888177
573,6.413,0.0247715811187734
574,6.420,0.0252545924497801
575,6.428,0.0168614864642347
576,6.435,0.00661160964780633
577,6.443,0.0321986644423054
578,6.450,0.00923994403341435
579,6.458,0.0243701171553393
580,6.465,0.0143397909439139
581,6.473,0.02062521112143
582,6.480,0.0322112101911627
583,6.488,0.0689451628453884
584,6.495,0.0567883322026477
585,6.503,0.0332211429741768
586,6.511,0.0205122993817141
587,6.518,0.0225070734500276
588,6.526,0.0105196104168607
589,6.533,0.0223627973381685
590,6.541,0.0255619632967844
591,6.548,0.0219174232537337
592,6.556,0.0363136700675055
593,6.563,0.0210078564615782
594,6.571,0.00624151005651546
595,6.578,0.0322676660610206
596,6.586,0.0177585075075329
597,6.593,0.0148102565260633
598,6.601,0.0216225981555867
599,6.609,0.0264715300889399
600,6.616,0.0314208280131517
601,6.624,0.0223627973381685
602,6.631,0.0268918126756601
603,6.639,0.0109712573757242
604,6.646,0.0140198743480523
605,6.654,0.00298588822804157
606,6.661,0.0174134994139567
607,6.669,0.0172190403066683
608,6.676,0.0115232703254461
609,6.684,0.00975431973656437
610,6.691,0.0323178490564499
611,6.699,0.025147953584493
612,6.706,0.0146534346653469
613,6.714,0.0238871058243325
614,6.722,0.0256560564132143
615,6.729,0.00849347197640395
616,6.737,0.00918348816355642
617,6.744,0.0103188784351437
618,6.752,0.0163910208820853
619,6.759,0.0185551625599726
620,6.767,0.025662329287643
621,6.774,0.0243262070343387
622,6.782,0.0160585585373664
623,6.789,0.0052629416456447
624,6.797,0.0269608142943753
625,6.804,0.0282028434312498
626,6.812,0.0134239512773297
627,6.819,0.0203115673999971
628,6.827,0.0157260961926475
629,6.835,0.0139571456037657
630,6.842,0.0158013706857914
631,6.850,0.0169242152085213
632,6.857,0.0141076945900535
633,6.865,0.0206691212424306
634,6.872,0.0213842289272977
635,6.880,0.0346639040927683
636,6.887,0.0200857439205653
637,6.895,0.0293884166982663
638,6.902,0.0139006897339078
639,6.910,0.0217292370208739
640,6.917,0.0235734621028996
641,6.925,0.0342185300083335
642,6.933,0.015312086480356
643,6.940,0.0272744580158083
644,6.948,0.0222498855984526
645,6.955,0.0186053455554019
646,6.963,0.00329953194947451
647,6.970,0.00843074323211737
648,6.978,0.0228207171714606
649,6.985,0.00174385909116713
650,6.993,0.0155818200807883
651,7.000,0.0195839139662726
652,7.008,0.00770936267282161
653,7.015,0.0249158572306326
654,7.023,0.0314584652597237
655,7.030,0.0317407446090133
656,7.038,0.0381265307773879
657,7.046,0.0281714790591065
658,7.053,0.0230590863997496
659,7.061,0.0268855398012314
660,7.068,0.0213716831784404
661,7.076,0.023786739833474
662,7.083,0.0168803050875207
663,7.091,0.00316152871204401
664,7.098,0.0142896079484846
665,7.106,0.00649242503366181
666,7.113,0.0279393827052461
667,7.121,0.019577641091844
668,7.128,0.0139634184781944
669,7.136,0.0153622694757853
670,7.144,0.00237114653403301
671,7.151,0.0280021114495327
672,7.159,0.0203554775209977
673,7.166,0.030956635305431
674,7.174,0.033051775364603
675,7.181,0.0324433065450231
676,7.189,0.0241693851736222
677,7.196,0.0303983494812803
678,7.204,0.0239749260663338
679,7.211,0.0310381826730035
680,7.219,0.0122007407637413
681,7.226,0.0191573585051238
682,7.234,0.0262394337350796
683,7.241,0.0439477582471832
684,7.249,0.0421725347838728
685,7.257,0.0349712749397726
686,7.264,0.0377187939395251
687,7.272,0.0434333825440332
688,7.279,0.0347768158324841
689,7.287,0.0206503026191446
690,7.294,0.039412470035263
691,7.302,0.0175389569025299
692,7.309,0.00890120881426677
693,7.317,0.0139383269804798
694,7.324,0.0215159592902995
695,7.332,0.0457731647059229
