#"+EI TIC Scan MEOH-Blank2.d "
#Point,X(Minutes),Y(Counts)
0,2.095,0.228355031019374
1,2.102,0.195663551614747
2,2.110,0.20289812682741
3,2.117,0.204619412164233
4,2.125,0.183614554256985
5,2.133,0.17230972161251
6,2.140,0.194272287150773
7,2.148,0.152592592209126
8,2.155,0.165146327372423
9,2.163,0.148515863779808
10,2.170,0.138071673803746
11,2.178,0.125110265797517
12,2.185,0.143850274577366
13,2.193,0.132610151907961
14,2.200,0.134176133304619
15,2.208,0.126145625398613
16,2.215,0.108395679237313
17,2.223,0.109560458788546
18,2.230,0.130008810910205
19,2.238,0.126967442081984
20,2.246,0.126100328416065
21,2.253,0.0931176541236302
22,2.261,0.10955398779104
23,2.268,0.0953177932759606
24,2.276,0.105173122478899
25,2.283,0.11185766290348
26,2.291,0.116031456295401
27,2.298,0.105884932204653
28,2.306,0.113488354275207
29,2.313,0.140012973055802
30,2.321,0.134946182007935
31,2.328,0.130422954750644
32,2.336,0.112485349661644
33,2.344,0.117694502654662
34,2.351,0.0756394898576173
35,2.359,0.0979644312562639
36,2.366,0.0862195707813238
37,2.374,0.091752273649684
38,2.381,0.105406078389146
39,2.389,0.131380662381658
40,2.396,0.222110518425259
41,2.404,0.257946902618217
42,2.411,0.145649211884272
43,2.419,0.0886656078389146
44,2.426,0.0933311970413564
45,2.434,0.0739505595083284
46,2.441,0.0669101142208712
47,2.449,0.0610473904796614
48,2.457,0.067893705841913
49,2.464,0.0727857799570947
50,2.472,0.0618821491580456
51,2.479,0.0774319561670159
52,2.487,0.0813533806561695
53,2.494,0.0634028335721563
54,2.502,0.0596496550181809
55,2.509,0.0667677522757204
56,2.517,0.0778849259924957
57,2.524,0.0610862164647025
58,2.532,0.0686961095327629
59,2.539,0.0720027892587654
60,2.547,0.0623739449685665
61,2.555,0.0672401350937207
62,2.562,0.0755812508800557
63,2.570,0.066211246490131
64,2.577,0.0782214178628521
65,2.585,0.0748629701567949
66,2.592,0.0625163069137173
67,2.600,0.0412137831211536
68,2.607,0.0545052120002319
69,2.615,0.0620568660907306
70,2.622,0.0727081279870125
71,2.630,0.0576565877860699
72,2.637,0.0496325508775708
73,2.645,0.0556441075614382
74,2.652,0.0444557528720875
75,2.660,0.0453552215255403
76,2.668,0.0624774809286762
77,2.675,0.0731222718274511
78,2.683,0.069226731328325
79,2.690,0.0479565625232956
80,2.698,0.055035833795794
81,2.705,0.0523503698304495
82,2.713,0.070333271901997
83,2.720,0.0514832561645311
84,2.728,0.0735558286604103
85,2.735,0.0698673600815035
86,2.743,0.0697767661164076
87,2.750,0.078538496740688
88,2.758,0.0628980957666217
89,2.765,0.0769336893589882
90,2.773,0.0800074131747439
91,2.781,0.0787714526509347
92,2.788,0.050156701675626
93,2.796,0.0568994810777679
94,2.803,0.0916940346721223
95,2.811,0.095479568213632
96,2.818,0.0557929405040959
97,2.826,0.0574365738708368
98,2.833,0.0684243276374751
99,2.841,0.0674019100313921
100,2.848,0.047497121700309
101,2.856,0.0593584601303725
102,2.863,0.0627427918264572
103,2.871,0.0506743814761743
104,2.879,0.0558123534966164
105,2.886,0.0734652346953144
106,2.894,0.0700938449942434
107,2.901,0.0777231510548244
108,2.909,0.0648846920012259
109,2.916,0.0630275157167587
110,2.924,0.0736787776130406
111,2.931,0.0631569356668958
112,2.939,0.0462288061889656
113,2.946,0.0704626918521341
114,2.954,0.980032572413051
115,2.961,15.4682918533765
116,2.969,58.9703491129039
117,2.976,100
118,2.984,16.7745144681151
119,2.992,0.380695254325732
120,2.999,0.210152115032593
121,3.007,0.15848767093787
122,3.014,0.159704218469159
123,3.022,0.113663071207892
124,3.029,0.114704901806495
125,3.037,0.121926535024145
126,3.044,0.104707210658406
127,3.052,0.0944247956200147
128,3.059,0.131231829439001
129,3.067,0.136305091484374
130,3.074,0.125686184575627
131,3.082,0.100125744423553
132,3.090,0.124599056994475
133,3.097,0.078402605793044
134,3.105,0.090956340956341
135,3.112,0.0925546773405339
136,3.120,0.118341602405347
137,3.127,0.115610841457455
138,3.135,0.0974143964681813
139,3.142,0.0864266427015431
140,3.150,0.0669101142208712
141,3.157,0.0964825728271943
142,3.165,0.0962884429019887
143,3.172,0.0762930606058096
144,3.180,0.0800721231498124
145,3.187,0.076940160356495
146,3.195,0.0612156364148396
147,3.203,0.0611897524248122
148,3.210,0.0526350937207511
149,3.218,0.0655706177369524
150,3.225,0.0394536717992893
151,3.233,0.0439510150665529
152,3.240,0.0540716551672727
153,3.248,0.0936353339241786
154,3.255,0.400334731759035
155,3.263,0.979256052712228
156,3.270,0.599816171902825
157,3.278,0.119771692854362
158,3.285,0.0696020491837225
159,3.293,0.0502861216257631
160,3.301,0.0531851285088337
161,3.308,0.0690261304056125
162,3.316,0.0684372696324888
163,3.323,0.0590284392575229
164,3.331,0.0625874878862927
165,3.338,0.0524344927980386
166,3.346,0.0501825856656534
167,3.353,0.0354287113500261
168,3.361,0.0521174139202028
169,3.368,0.0355904862876974
170,3.376,0.0309572520727899
171,3.383,0.0539163512271082
172,3.391,0.0479889175108299
173,3.398,0.0491536970620636
174,3.406,0.0373570686070686
175,3.414,0.049580782897516
176,3.421,0.0286988739428978
177,3.429,0.0258451640423752
178,3.436,0.0488172051917072
179,3.444,0.0533080774614639
180,3.451,0.0431421403781962
181,3.459,0.0362052310508486
182,3.466,0.0400231195798925
183,3.474,0.0497684418252147
184,3.481,0.0599732048935236
185,3.489,0.107263254673613
186,3.496,0.0647682140461025
187,3.504,0.0412137831211536
188,3.511,0.048383648358748
189,3.519,0.0605620656666473
190,3.527,0.0483448223737068
191,3.534,0.0534116134215736
192,3.542,0.0493025300047212
193,3.549,0.0295142196287615
194,3.557,0.0387677460635628
195,3.564,0.0377453284574799
196,3.572,0.0426503445676752
197,3.579,0.0469535579097332
198,3.587,0.0469794418997606
199,3.594,0.0344710037190117
200,3.602,0.0375576695297811
201,3.609,0.0472835787825828
202,3.617,0.0404955023978928
203,3.625,0.0371952936693973
204,3.632,0.0425921055901136
205,3.640,0.0321543866115579
206,3.647,0.0561747293570003
207,3.655,0.0205454170842617
208,3.662,0.0395313237693716
209,3.670,0.0371694096793698
210,3.677,0.0362440570358897
211,3.685,0.0383924282081653
212,3.692,0.041155544143592
213,3.700,0.0406055093555094
214,3.707,0.0609567965145654
215,3.715,0.0704173948695861
216,3.722,0.0629886897317176
217,3.730,0.0357134352403277
218,3.738,0.0381335883078911
219,3.745,0.0504155415759001
220,3.753,0.0385024351657818
221,3.760,0.0504802515509687
222,3.768,0.0292812637185147
223,3.775,0.0451934465878689
224,3.783,0.0301807323719674
225,3.790,0.0363928899785474
226,3.798,0.0370011637441916
227,3.805,0.0400425325724131
228,3.813,0.0300642544168441
229,3.820,0.0312225629705709
230,3.828,0.0337850779832852
231,3.836,0.0211925168349471
232,3.843,0.0325232334694486
233,3.851,0.0247192104761826
234,3.858,0.0397319246920841
235,3.866,0.0449346066875947
236,3.873,0.036587019903753
237,3.881,0.0439316020740324
238,3.888,0.0381465303029048
239,3.896,0.0378100384325484
240,3.903,0.0183970459119862
241,3.911,0.0149997722208878
242,3.918,0.0245056675584564
243,3.926,0.0276505723467875
244,3.933,0.0124825541907215
245,3.941,0.0178534821214104
246,3.949,0.0347945535943544
247,3.956,0.0296436395788985
248,3.964,0.0665606803555011
249,3.971,0.102228818613281
250,3.979,0.0324326395043526
251,3.986,0.0219366815482353
252,3.994,0.0312419759630915
253,4.001,0.00900115753203403
254,4.009,0.0289965398282131
255,4.016,0.00669101142208712
256,4.024,0.0161904357621489
257,4.031,0.0198594913485352
258,4.039,0.0235803149149763
259,4.047,0.0259228160124574
260,4.054,0.00605685366641542
261,4.062,0.0220143335183176
262,4.069,0.0270681825711706
263,4.077,0.0174587512734923
264,4.084,0.0750635710795073
265,4.092,0.40639158542545
266,4.099,0.734031131192486
267,4.107,0.336045371528439
268,4.114,0.0517615090573258
269,4.122,0.0420679547920584
270,4.129,0.028601808980295
271,4.137,0.0187270667848357
272,4.144,0.0305495792298581
273,4.152,0.0247256814736894
274,4.160,0.0209142639421524
275,4.167,0.0233344170097158
276,4.175,0.0188823707250002
277,4.182,0.00868407865419818
278,4.190,0.0124954961857352
279,4.197,0.0260392939675808
280,4.205,0.00962884429019887
281,4.212,0.0254957301770051
282,4.220,0.0245574355385112
283,4.227,0.0288153518980212
284,4.235,0.0283947370600757
285,4.242,0.0328273703522707
286,4.250,0.0282782591049523
287,4.258,0.0312743309506258
288,4.265,0.0210501548897963
289,4.273,0.0221049274834135
290,4.280,0.0181770319967531
291,4.288,0.0244150735933604
292,4.295,0.0348204375843818
293,4.303,0.0216196026703995
294,4.310,0.0171287304006428
295,4.318,0.0193612245405074
296,4.325,0.0215937186803721
297,4.333,0.0222990574086192
298,4.340,0.0293524446910901
299,4.348,0.0215678346903447
300,4.355,0.0277735212994177
301,4.363,0.0337591939932577
302,4.371,0.00963531528770573
303,4.378,0.0328856093298324
304,4.386,0.0109683407741177
305,4.393,0.0124890251882284
306,4.401,0.0256186791296353
307,4.408,0.0384183121981927
308,4.416,0.132105414102426
309,4.423,0.128824618366451
310,4.431,0.0479112655407476
311,4.438,0.0411684861386057
312,4.446,0.0192641595779046
313,4.453,0.0237485608501545
314,4.461,0.0200795052637682
315,4.468,0.0279611802271165
316,4.476,0.0122690112729953
317,4.484,0.0168116515228069
318,4.491,0.02589693202243
319,4.499,0.0361211080832595
320,4.506,0.0222537604260712
321,4.514,0.0190570876576853
322,4.521,0.0193741665355211
323,4.529,0.0172322663607524
324,4.536,0.0331573912251203
325,4.544,0.0170446074330536
326,4.551,0.0140226515973528
327,4.559,0.0285176860127059
328,4.566,0.0226096652889482
329,4.574,0.0256251501271422
330,4.582,0.0279094122470617
331,4.589,0.0250945283315801
332,4.597,0.0160416028194913
333,4.604,0
334,4.612,0.0126443291283929
335,4.619,0.0238520968102641
336,4.627,0.0232244100520993
337,4.634,0.00944765636000696
338,4.642,0.0316949457885713
339,4.649,0.0256704471096901
340,4.657,0.0182935099518765
341,4.664,0.0178340691288898
342,4.672,0.0198983173335763
343,4.679,0.0317143587810918
344,4.687,0.0159445378568885
345,4.695,0.0160221898269707
346,4.702,0.0172322663607524
347,4.710,0.0235609019224557
348,4.717,0.0240462267354698
349,4.725,0.0119778163851869
350,4.732,0.0152262571336277
351,4.740,0.0200471502762339
352,4.747,0.0247645074587306
353,4.755,0.0181705609992463
354,4.762,0.015388032071299
355,4.770,0.00447793027474302
356,4.777,0.0138285216721472
357,4.785,0.0225902522964276
358,4.793,0.0314102218982697
359,4.800,0.0241044657130315
360,4.808,0.0226420202764824
361,4.815,0.0151874311485865
362,4.823,0.0140614775823939
363,4.830,0.0347298436192858
364,4.838,0.0827122901326089
365,4.845,0.100772844174239
366,4.853,0.0468176669620893
367,4.860,0.0234314819723186
368,4.868,0.0232632360371404
369,4.875,0.0202801061864807
370,4.883,0.0269064076334993
371,4.890,0.012327250250557
372,4.898,0.0435433422236211
373,4.906,0.0240721107254972
374,4.913,0.0202865771839875
375,4.921,0.00997180715806214
376,4.928,0.0200795052637682
377,4.936,0.029268321723501
378,4.943,0.0224090643662357
379,4.951,0.0213478207751116
380,4.958,0.012107236335324
381,4.966,0.0241756466856068
382,4.973,0.00818581184617041
383,4.981,0.0206424820468645
384,4.988,0.0191282686302607
385,4.996,0.0225449553138796
386,5.004,0.00940235937745898
387,5.011,0.0143720854627229
388,5.019,0.0237291478576339
389,5.026,0.0261687139177179
390,5.034,0.0172710923457935
391,5.041,0.0333191661627917
392,5.049,0.0370399897292328
393,5.056,0.0516773860897367
394,5.064,0.0984174010817437
395,5.071,0.058847251327331
396,5.079,0.0574948128483985
397,5.086,0.0321673286065716
398,5.094,0.04523227257291
399,5.101,0.0173358023208621
400,5.109,0.0387806880585765
401,5.117,0.0273917324465133
402,5.124,0.0318567207262426
403,5.132,0.02359325690999
404,5.139,0.0220078625208107
405,5.147,0.0323873425218047
406,5.154,0.0110654057367205
407,5.162,0.0369946927466848
408,5.169,0.0285823959877745
409,5.177,0.0120037003752143
410,5.184,0.0140355935923665
411,5.192,0.0137314567095444
412,5.199,0.0272687834938831
413,5.207,0.0397642796796183
414,5.214,0.014721519328093
415,5.222,0.0036496425938657
416,5.230,0.0213154657875773
417,5.237,0.00606979566142913
418,5.245,0.0187658927698768
419,5.252,0.0354610663375604
420,5.260,0.0325750014495034
421,5.267,0.0168893034928892
422,5.275,0.0314490478833108
423,5.282,0.0240332847404561
424,5.290,0.0178211271338761
425,5.297,0.0334744701029562
426,5.305,0.0193482825454937
427,5.312,0.00493737109772966
428,5.320,0.0184423428945341
429,5.328,0.0404696184078654
430,5.335,0.00732516917775882
431,5.343,0.0231079320969759
432,5.350,0.019290043567932
433,5.358,0.0261557719227042
434,5.365,0.0375706115247948
435,5.373,0.021729609628016
436,5.380,0.0369235117741094
437,5.388,0.0214125307501802
438,5.395,0.0209142639421524
439,5.403,0.0307048831700226
440,5.410,0.0361146370857526
441,5.418,0.0329826742924352
442,5.425,0.0242532986556891
443,5.433,0.0249780503764568
444,5.441,0.0317143587810918
445,5.448,0.029223024740953
446,5.456,0.0266863937182662
447,5.463,0.0443522169119779
448,5.471,0.0431615533707167
449,5.478,0.0435562842186348
450,5.486,0.0300966094043783
451,5.493,0.031487873868352
452,5.501,0.0431550823732099
453,5.508,0.0385542031458366
454,5.516,0.0333968181328739
455,5.523,0.0201248022463162
456,5.531,0.0169669554629714
457,5.539,0.0158345308992719
458,5.546,0.0345810106766282
459,5.554,0.0173358023208621
460,5.561,0.0224349483562631
461,5.569,0.0202542221964533
462,5.576,0.0236126699025105
463,5.584,0.024699797483662
464,5.591,0.0125860901508312
465,5.599,0.0210177999022621
466,5.606,0.0140291225948596
467,5.614,0.0273076094789242
468,5.621,0.035829913195451
469,5.629,0.0622962929984842
470,5.636,0.0346457206516968
471,5.644,0.0352022264372862
472,5.652,0.045012258657677
473,5.659,0.0174393382809717
474,5.667,0.0296824655639397
475,5.674,0.0352798784073684
476,5.682,0.00991356818050045
477,5.689,0.0151421341660385
478,5.697,0.0101206401007198
479,5.704,0.0193612245405074
480,5.712,0.0188694287299865
481,5.719,0.0222925864111123
482,5.727,0.0449346066875947
483,5.734,0.022570839303907
484,5.742,0.0350210385070943
485,5.750,0.0166628185801493
486,5.757,0.00663924344203229
487,5.765,0.0170769624205879
488,5.772,0.0233667719972501
489,5.780,0.0226031942914413
490,5.787,0.0135890947643936
491,5.795,0.0137961666846129
492,5.802,0.0101853500757883
493,5.810,0.0311384400029818
494,5.817,0.0201183312488093
495,5.825,0.0262787208753344
496,5.832,0.0185135238671095
497,5.840,0.010644790898775
498,5.847,0.0213801757626459
499,5.855,0.00672983740712824
500,5.863,0.0310543170353927
501,5.870,0.0352410524223273
502,5.878,0.0204742361116863
503,5.885,0.0249456953889225
504,5.893,0.0205001201017137
505,5.900,0.0504284835709139
506,5.908,0.125647358590586
507,5.915,0.154067979640689
508,5.923,0.117946871557429
509,5.930,0.0832623249206915
510,5.938,0.0630339867142656
511,5.945,0.0408384652657561
512,5.953,0.043148611375703
513,5.960,0.034147453843669
514,5.968,0.0280129482071713
515,5.976,0.0319214307013112
516,5.983,0.0231597000770308
517,5.991,0.0370141057392053
518,5.998,0.0255280851645393
519,6.006,0.0304719272597759
520,6.013,0.0322967485567087
521,6.021,0.0137314567095444
522,6.028,0.0120554683552692
523,6.036,0.0294365676586792
524,6.043,0.0257675120722929
525,6.051,0.0175493452385883
526,6.058,0.0163004427197654
527,6.066,0.0153362640912442
528,6.074,0.0451093236202798
529,6.081,0.087539654272722
530,6.089,0.0710256686352304
531,6.096,0.0377776834450141
532,6.104,0.0361081660882458
533,6.111,0.0464229361141712
534,6.119,0.027495268406623
535,6.126,0.0307631221475843
536,6.134,0.03614052107578
537,6.141,0.0305236952398307
538,6.149,0.03441276474145
539,6.156,0.0464164651166643
540,6.164,0.0460540892562805
541,6.171,0.0443133909269367
542,6.179,0.0581936805791387
543,6.187,0.0307372381575569
544,6.194,0.0384247831956995
545,6.202,0.0334291731204082
546,6.209,0.0259098740174437
547,6.217,0.0272170155138283
548,6.224,0.0347363146167927
549,6.232,0.0436339361887171
550,6.239,0.0188564867349728
551,6.247,0.0184358718970273
552,6.254,0.026162242920211
553,6.262,0.0394407298042756
554,6.269,0.0198271363610009
555,6.277,0.0254698461869777
556,6.285,0.0376353214998633
557,6.292,0.0321090896290099
558,6.300,0.0317402427711193
559,6.307,0.0268934656384856
560,6.315,0.021198987832454
561,6.322,0.032950319304901
562,6.330,0.0314619898783245
563,6.337,0.0142103105250516
564,6.345,0.0160480738169981
565,6.352,0.0239750457628944
566,6.360,0.0552493767135201
567,6.367,0.032859725339805
568,6.375,0.0292877347160216
569,6.382,0.0343804097539157
570,6.390,0.0113113036419809
571,6.398,0.0189988486801236
572,6.405,0.0249003984063745
573,6.413,0.0156274589790526
574,6.420,0.0170834334180948
575,6.428,0.0308925420977214
576,6.435,0.0179893730690543
577,6.443,0.0184099879069999
578,6.450,0.0167792965352726
579,6.458,0.02106309688481
580,6.465,0.0185976468346986
581,6.473,0.0131878929189686
582,6.480,0.103898335970049
583,6.488,0.23883157598297
584,6.496,0.151395457670358
585,6.503,0.071219798560436
586,6.511,0.0553140866885887
587,6.518,0.0394989687818373
588,6.526,0.0413237900787702
589,6.533,0.0419126508518939
590,6.541,0.0308731291052008
591,6.548,0.0320961476339962
592,6.556,0.042527395615045
593,6.563,0.0373894235946029
594,6.571,0.0328726673348187
595,6.578,0.0294818646412272
596,6.586,0.0340956858636142
597,6.593,0.0321285026215305
598,6.601,0.0233538300022364
599,6.609,0.0205648300767823
600,6.616,0.0422879687072914
601,6.624,0.032995616287449
602,6.631,0.0311513819979955
603,6.639,0.0698673600815035
604,6.646,0.110472869437013
605,6.654,0.0796062113293189
606,6.661,0.059559061053085
607,6.669,0.0476977226230214
608,6.676,0.0189406097025619
609,6.684,0.0417120499291814
610,6.691,0.0311707949905161
611,6.699,0.0339339109259428
612,6.707,0.0336297740431207
613,6.714,0.0349692705270395
614,6.722,0.0344904167115323
615,6.729,0.0243697766108125
616,6.737,0.049535485914968
617,6.744,0.053126889531272
618,6.752,0.0521109429226959
619,6.759,0.0464941170867466
620,6.767,0.0334097601278876
621,6.774,0.0437374721488267
622,6.782,0.0317143587810918
623,6.789,0.0380882913253431
624,6.797,0.0302519133445428
625,6.804,0.0296371685813917
626,6.812,0.0354740083325741
627,6.820,0.040489031400386
628,6.827,0.0444104558895396
629,6.835,0.0451093236202798
630,6.842,0.0375511985322742
631,6.850,0.0269970015985952
632,6.857,0.0425403376100587
633,6.865,0.033571535065559
634,6.872,0.0455946484332939
635,6.880,0.0369105697790957
636,6.887,0.0321932125965991
637,6.895,0.0353769433699713
638,6.902,0.0561035483844249
639,6.910,0.0481765764385286
640,6.917,0.041155544143592
641,6.925,0.0452581565629374
642,6.933,0.0358040292054236
643,6.940,0.0394989687818373
644,6.948,0.050111404693078
645,6.955,0.0410714211760028
646,6.963,0.0158086469092445
647,6.970,0.0289253588556377
648,6.978,0.0305754632198855
649,6.985,0.0427021125477301
650,6.993,0.0764936615285221
651,7.000,0.0825440441974307
652,7.008,0.0794120814041133
653,7.015,0.0614291793325658
654,7.023,0.0733293437476704
655,7.031,0.0871255104322833
656,7.038,0.0635387245198002
657,7.046,0.0548093488830541
658,7.053,0.0421326647671269
659,7.061,0.0667612812782136
660,7.068,0.0512503002542843
661,7.076,0.0463776391316232
662,7.083,0.0468888479346647
663,7.091,0.0300189574342961
664,7.098,0.0560647223993838
665,7.106,0.0452516855654306
666,7.113,0.0463258711515684
667,7.121,0.0612156364148396
668,7.128,0.0621345180608129
669,7.136,0.0318696627212563
670,7.144,0.03982251865718
671,7.151,0.0399001706272623
672,7.159,0.0651694158915274
673,7.166,0.0481053954659532
674,7.174,0.0343092287813403
675,7.181,0.0525768547431894
676,7.189,0.0505837875110784
677,7.196,0.0570483140204256
678,7.204,0.0575465808284533
679,7.211,0.0569188940702885
680,7.219,0.0533210194564776
681,7.226,0.0769336893589882
682,7.234,0.0871255104322833
683,7.242,0.0700744320017228
684,7.249,0.0661918334976104
685,7.257,0.0416732239441403
686,7.264,0.0431615533707167
687,7.272,0.0446628247923069
688,7.279,0.0380235813502746
689,7.287,0.0416214559640854
690,7.294,0.0379782843677266
691,7.302,0.0460152632712394
692,7.309,0.024479783568429
693,7.317,0.0346521916492036
694,7.324,0.0400943005524679
695,7.332,0.0439510150665529
696,7.339,0.0426956415502232
