#"+EI TIC Scan TCM-PP.d "
#Point,X(Minutes),Y(Counts)
0,2.095,0.117188757233557
1,2.102,0.103504891630767
2,2.110,0.116878887088566
3,2.117,0.0811487935701697
4,2.125,0.106859752400533
5,2.132,0.0912257706852679
6,2.140,0.0854828439981066
7,2.147,0.0755463413487375
8,2.155,0.0778683016352013
9,2.162,0.0903333446676946
10,2.170,0.0891517065147967
11,2.177,0.0865570605007411
12,2.185,0.0732656970816058
13,2.193,0.0646347806431309
14,2.200,0.0602552825939288
15,2.208,0.0661056309313535
16,2.215,0.0719642424726448
17,2.223,0.0547189360034279
18,2.230,0.0603957570596579
19,2.238,0.0606188635640512
20,2.245,0.0613336306984965
21,2.253,0.0605899423505187
22,2.260,0.0668988985025298
23,2.268,0.057520162114144
24,2.275,0.0582431924524557
25,2.283,0.064399279332938
26,2.291,0.0485463227152128
27,2.298,0.0427910012222518
28,2.306,0.0469845771844595
29,2.313,0.0456665961677657
30,2.321,0.0419894704472091
31,2.328,0.0787813856624406
32,2.336,0.15349314342067
33,2.343,0.103860209397023
34,2.351,0.0789549129436354
35,2.358,0.0521532112029047
36,2.366,0.0545082243048342
37,2.373,0.0595322522556171
38,2.381,0.0508434933900773
39,2.388,0.0545660667318991
40,2.396,0.197407940368755
41,2.404,0.33368469853374
42,2.411,0.103079336631646
43,2.419,0.0511905479524669
44,2.426,0.0462863364577471
45,2.434,0.0485132698997471
46,2.441,0.030119378093098
47,2.449,0.0466829702433352
48,2.456,0.0602635457977952
49,2.464,0.0514632336800587
50,2.471,0.0603544410403258
51,2.479,0.0675392968021773
52,2.486,0.05542957153594
53,2.494,0.0599330176431384
54,2.502,0.0538347731897211
55,2.509,0.0414482305939587
56,2.517,0.0492239054322591
57,2.524,0.0556361516326004
58,2.532,0.0444477735974688
59,2.539,0.0452864887899104
60,2.547,0.0351847220632129
61,2.554,0.0360069108479216
62,2.562,0.0364242026431758
63,2.569,0.0934113881079358
64,2.577,0.203766475743964
65,2.584,0.0778600384313349
66,2.592,0.0486330863558102
67,2.599,0.0604246782731904
68,2.607,0.0624822160359287
69,2.615,0.062940823850515
70,2.622,0.03962206253948
71,2.630,0.0496205392178473
72,2.637,0.0490297201413983
73,2.645,0.0243805830078698
74,2.652,0.0417911535544151
75,2.660,0.0416382842828863
76,2.667,0.0346806666273614
77,2.675,0.0311688049841332
78,2.682,0.0318009400799143
79,2.690,0.0335486076976619
80,2.697,0.0334825020667306
81,2.705,0.0396261941414132
82,2.713,0.0328710249806156
83,2.720,0.0393700348215543
84,2.728,0.0430926081633761
85,2.735,0.0665766335517394
86,2.743,0.0535951402775949
87,2.750,0.0504551228083556
88,2.758,0.0284295529024152
89,2.765,0.0623252151624668
90,2.773,0.0708197887371457
91,2.780,0.0478108975711015
92,2.788,0.0543636182371719
93,2.795,0.058821616723105
94,2.803,0.0543346970236394
95,2.810,0.0578300322591347
96,2.818,0.0442329302969419
97,2.826,0.0439561129674169
98,2.833,0.044332088743339
99,2.841,0.0502444111097619
100,2.848,0.0458194654392944
101,2.856,0.0684441176255502
102,2.863,0.0666014231633387
103,2.871,0.0496288024217137
104,2.878,0.0583010348795206
105,2.886,0.0864537704524108
106,2.893,0.059924754439272
107,2.901,0.0594000409937544
108,2.908,0.0406756210324485
109,2.916,0.05631786595158
110,2.923,0.0386965837064411
111,2.931,0.0583712721123852
112,2.939,0.0460880195649531
113,2.946,0.0402418028294615
114,2.954,0.138821824955842
115,2.961,4.5690518142959
116,2.969,30.9846264331546
117,2.976,75.8342437662493
118,2.984,100
119,2.991,3.25045518891399
120,2.999,0.107355544632518
121,3.006,0.0924487248574979
122,3.014,0.0968901969356983
123,3.021,0.076542057414641
124,3.029,0.0553799923127414
125,3.037,0.0767362427055018
126,3.044,0.0778848280429341
127,3.052,0.0611890246308341
128,3.059,0.0518929202811125
129,3.067,0.0545784615376988
130,3.074,0.0467656022819994
131,3.082,0.052335001687966
132,3.089,0.0470382880095913
133,3.097,0.0386056884639105
134,3.104,0.0282064463980219
135,3.112,0.0379115793391313
136,3.119,0.0606477847775837
137,3.127,0.0715469506773906
138,3.134,0.0706503930578841
139,3.142,0.0382090546783224
140,3.150,0.0309828828971388
141,3.157,0.0551527542064149
142,3.165,0.0704892605824889
143,3.172,0.0425885527275245
144,3.180,0.0437701908804225
145,3.187,0.0460177823320885
146,3.195,0.0390064538514318
147,3.202,0.0327842613400182
148,3.210,0.0450303294700514
149,3.217,0.0357548831299959
150,3.225,0.0211620651018996
151,3.232,0.0305077486748197
152,3.240,0.0331478423101406
153,3.248,0.0388535845799031
154,3.255,0.0458442550508937
155,3.263,0.0470382880095913
156,3.270,0.0396427205491461
157,3.278,0.0287972654744709
158,3.285,0.0252977986370424
159,3.293,0.0251573241713132
160,3.300,0.0162743800149126
161,3.308,0.0425224470965932
162,3.315,0.0495833548004484
163,3.323,0.024087239270612
164,3.330,0.0230254175737771
165,3.338,0.025566352762701
166,3.345,0.0276197589235062
167,3.353,0.0179476787978625
168,3.361,0.0268099649445971
169,3.368,0.0233889985438995
170,3.376,0.0200217429683337
171,3.383,0.0197201360272094
172,3.391,0.0234592357767641
173,3.398,0.0164974865193059
174,3.406,0.023004759564111
175,3.413,0.024797874803124
176,3.421,0.0228725483022483
177,3.428,0.0278676550394987
178,3.436,0.0234592357767641
179,3.443,0.0227196790307196
180,3.451,0.0186211299129757
181,3.459,0.019278054620356
182,3.466,0.0231658920395062
183,3.474,0.0206497464621816
184,3.481,0.0319496777495098
185,3.489,0.083264173759973
186,3.496,0.060337914632593
187,3.504,0.0265000947996064
188,3.511,0.0157455349674618
189,3.519,0.0213438555869608
190,3.526,0.0134896803119293
191,3.534,0.0243392669885377
192,3.541,0.0123328317706306
193,3.549,0.0201539542301964
194,3.556,0.0167371194314321
195,3.564,0.02203796471174
196,3.572,0.0152827955509423
197,3.579,0.0216000149068198
198,3.587,0
199,3.594,0.026590990042137
200,3.602,0.0120766724507717
201,3.609,0.0140309201651798
202,3.617,0.0200919802011983
203,3.624,0.0127418603620184
204,3.632,0.0140598413787123
205,3.639,0.0148407141440889
206,3.647,0.0151257946774803
207,3.654,0.0183773653989163
208,3.662,0.0170015419551575
209,3.670,0.0241781345131426
210,3.677,0.0188855524367011
211,3.685,0.0100439242996325
212,3.692,0.0120518828391724
213,3.700,0.0169106467126269
214,3.707,0.0250251129094505
215,3.715,0.0317472292547825
216,3.722,0.0170180683628903
217,3.730,0.0197531888426751
218,3.737,0.0387255049199736
219,3.745,0.0221123335465378
220,3.752,0.0302681157626935
221,3.760,0.0245086626677993
222,3.767,0.0297557971229755
223,3.775,0.0270537294586564
224,3.783,0.0295533486282482
225,3.790,0.0283427892618178
226,3.798,0.0204596927732539
227,3.805,0.00548676736730234
228,3.813,0.0105934273567494
229,3.820,0.0159314570544562
230,3.828,0.0104322948813542
231,3.835,0.0219016218479441
232,3.843,0.0176584666625378
233,3.850,0.0166668821985675
234,3.858,0.0150844786581482
235,3.865,0.0275412584867752
236,3.873,0.0250375077152502
237,3.880,0.03839910836725
238,3.888,0.0279172342626972
239,3.896,0.0178898363707976
240,3.903,0.0190301585043634
241,3.911,0.0328627617767491
242,3.918,0.0201415594243968
243,3.926,0.0164024596748421
244,3.933,0.011708959878716
245,3.941,0.0100356610957661
246,3.948,0.0139606829323152
247,3.956,0.0140722361845119
248,3.963,0.0378991845333316
249,3.971,0.0901846069980991
250,3.978,0.047013498397992
251,3.986,0.0303838006168234
252,3.994,0.0153571643857401
253,4.001,0.0289997139691982
254,4.009,0.0508682830016766
255,4.016,0.0321975738655024
256,4.024,0.0317348344489829
257,4.031,0.0137127868163227
258,4.039,0.0359986476440552
259,4.046,0.0461499935939512
260,4.054,0.0285369745526787
261,4.061,0.0244590834446008
262,4.069,0.0311274889648011
263,4.076,0.0264463839744746
264,4.084,0.0610361553593054
265,4.091,0.0528968995508825
266,4.099,0.0559005741563258
267,4.107,0.0343129540553057
268,4.114,0.00691217003425966
269,4.122,0.0152084267161445
270,4.129,0.0238847907758847
271,4.137,0.0373455498742815
272,4.144,0.0312514370227974
273,4.152,0.0227238106326528
274,4.159,0.0299417192099699
275,4.167,0.0184393394279144
276,4.174,0.0330817366792092
277,4.182,0.0237236583004895
278,4.189,0.0278841814472316
279,4.197,0.0208439317530424
280,4.205,0.0291525832407269
281,4.212,0.0233311561168346
282,4.220,0.0341352951721777
283,4.227,0.0225585465553244
284,4.235,0.0265248844112056
285,4.242,0.0178485203514655
286,4.250,0.0202861654920591
287,4.257,0.0153199799683412
288,4.265,0.0153199799683412
289,4.272,0.0114899849762559
290,4.280,0.0176212822451389
291,4.287,0.0235212098057622
292,4.295,0.0121882257029683
293,4.302,0.0171998588479516
294,4.310,0.0323380483312315
295,4.318,0.0169850155474247
296,4.325,0.00708982891738767
297,4.333,0.0102628992020926
298,4.340,0.00704024969418915
299,4.348,0.0254176150931054
300,4.355,0.0141259470096436
301,4.363,0.0208067473356435
302,4.370,0.0244921362600665
303,4.378,0.0184186814182484
304,4.385,0.0155513496766009
305,4.393,0.0148324509402225
306,4.400,0.0184765238453133
307,4.408,0.0413779933610941
308,4.416,0.116052566701924
309,4.423,0.129356324926859
310,4.431,0.0533968233848008
311,4.438,0.0386924521045079
312,4.446,0.0229179959235136
313,4.453,0.0202737706862595
314,4.461,0.0182947333602521
315,4.468,0.0207902209279107
316,4.476,0.0207654313163114
317,4.483,0.0223230452451315
318,4.491,0.0113453789085936
319,4.498,0.0299210612003039
320,4.506,0.0226370469920554
321,4.513,0.0185674190878439
322,4.521,0.0242318453382743
323,4.529,0.0385808988523112
324,4.536,0.0313464638672612
325,4.544,0.0214099612178921
326,4.551,0.00970926454304255
327,4.559,0.0232443924762372
328,4.566,0.0172246484595508
329,4.574,0.024087239270612
330,4.581,0.0186293931168421
331,4.589,0.0127005443426863
332,4.596,0.0292600048909904
333,4.604,0.0292269520755247
334,4.611,0.0238393431546194
335,4.619,0.0419564176317435
336,4.626,0.0259547233444227
337,4.634,0.0186211299129757
338,4.642,0.0259340653347566
339,4.649,0.0248020064050572
340,4.657,0.0219759906827418
341,4.664,0.0197242676291426
342,4.672,0.0321810474577695
343,4.679,0.0208769845685081
344,4.687,0.0253928254815062
345,4.694,0.0252523510157771
346,4.702,0.0256118003839663
347,4.709,0.0165635921502373
348,4.717,0.0196953464156101
349,4.724,0.0240831076686787
350,4.732,0.0312927530421295
351,4.740,0.0575160305122108
352,4.747,0.0243186089788717
353,4.755,0.0193276338435545
354,4.762,0.0243723198040034
355,4.770,0.0418324695737472
356,4.777,0.0282725520289533
357,4.785,0.0319496777495098
358,4.792,0.0223974140799292
359,4.800,0.0336808189595246
360,4.807,0.0314043062943261
361,4.815,0.0219718590808086
362,4.822,0.0318257296915135
363,4.830,0.0554254399340067
364,4.837,0.0372381282240181
365,4.845,0.0336147133285933
366,4.853,0.0179435471959293
367,4.860,0.0191293169507604
368,4.868,0.0205340616080517
369,4.875,0.0162371955975137
370,4.883,0.0213851716062929
371,4.890,0.017662598264471
372,4.898,0.0424522098637286
373,4.905,0.0626433485113239
374,4.913,0.0450055398584521
375,4.920,0.030751513188879
376,4.928,0.0223684928663968
377,4.935,0.0229758383505786
378,4.943,0.0287105018338735
379,4.951,0.030987014499072
380,4.958,0.0167288562275657
381,4.966,0.0176543350606046
382,4.973,0.0256572480052316
383,4.981,0.0267479909155989
384,4.988,0.0237938955333541
385,4.996,0.0207778261221111
386,5.003,0.0222982556335322
387,5.011,0.0420762340878065
388,5.018,0.0617302644840846
389,5.026,0.0298136395500405
390,5.033,0.0197201360272094
391,5.041,0.0261323822275507
392,5.048,0.0223560980605971
393,5.056,0.0289418715421332
394,5.064,0.0251449293655136
395,5.071,0.0129236508470796
396,5.079,0.0171337532170202
397,5.086,0.0114114845395249
398,5.094,0.0246450055315952
399,5.101,0.0255456947530349
400,5.109,0.0129360456528792
401,5.116,0.0198027680658736
402,5.124,0.022727942234586
403,5.131,0.0213438555869608
404,5.139,0.0239798176203485
405,5.146,0.0103124784252912
406,5.154,0.0100356610957661
407,5.162,0.0202985602978588
408,5.169,0.011175983229332
409,5.177,0.0138036820588533
410,5.184,0.0210546434516361
411,5.192,0.0264463839744746
412,5.199,0.0159769046757215
413,5.207,0.0262976463048791
414,5.214,0.0198564788910053
415,5.222,0.0196912148136769
416,5.229,0.0199597689393356
417,5.237,0.0233848669419663
418,5.244,0.032189310661636
419,5.252,0.0257770644612947
420,5.259,0.0220007802943411
421,5.267,0.0156009288997994
422,5.275,0.0265000947996064
423,5.282,0.00785417527503144
424,5.290,0.0283675788734171
425,5.297,0.0208604581607753
426,5.305,0.0196209775808124
427,5.312,0.0122873841493653
428,5.320,0.0264918315957399
429,5.327,0.0206125620447827
430,5.335,0.0166338293831018
431,5.342,0.0032267811098367
432,5.350,0.0236575526695582
433,5.357,0.0155513496766009
434,5.365,0.02426489815374
435,5.373,0.0229014695157808
436,5.380,0.0211785915096324
437,5.388,0.0146300024454952
438,5.395,0.0161586951607827
439,5.403,0.0275495216906416
440,5.410,0.0212075127231649
441,5.418,0.0192491334068235
442,5.425,0.0223354400509311
443,5.433,0.0147622137073579
444,5.440,0.0138243400685193
445,5.448,0.0164479072961074
446,5.455,0.0153736907934729
447,5.463,0.0272065987301852
448,5.470,0.0395352988988826
449,5.478,0.0379942113777955
450,5.486,0.0247359007741259
451,5.493,0.0299499824138364
452,5.501,0.0290782144059291
453,5.508,0.0165635921502373
454,5.516,0.0238476063584858
455,5.523,0.0306110387231499
456,5.531,0.0326809712916879
457,5.538,0.0350525108013502
458,5.546,0.0216495941300183
459,5.553,0.0222775976238661
460,5.561,0.0104777425026195
461,5.568,0.0350525108013502
462,5.576,0.0215297776739552
463,5.583,0.0100026082803004
464,5.591,0.0284997901352798
465,5.599,0.0232774452917029
466,5.606,0.0184352078259812
467,5.614,0.0505088336334873
468,5.621,0.189305868977731
469,5.629,0.188099441213233
470,5.636,0.113540552726533
471,5.644,0.0954028202397428
472,5.651,0.0714519238329268
473,5.659,0.0615691320086894
474,5.666,0.0657627079708972
475,5.674,0.0432496090368381
476,5.681,0.0467614706800662
477,5.689,0.030474695859354
478,5.697,0.0422084453496692
479,5.704,0.0395270356950162
480,5.712,0.0289212135324672
481,5.719,0.0402624608391275
482,5.727,0.0478232923769011
483,5.734,0.0454104368479067
484,5.742,0.0405847257899179
485,5.749,0.0432165562213724
486,5.757,0.0315571755658549
487,5.764,0.0346600086176953
488,5.772,0.0334205280377324
489,5.779,0.0370026269138252
490,5.787,0.0397501421994095
491,5.794,0.0318257296915135
492,5.802,0.0374405767187454
493,5.810,0.0361804381291164
494,5.817,0.0507608613514131
495,5.825,0.0492693530535244
496,5.832,0.0436049268030941
497,5.840,0.0423076037960663
498,5.847,0.0418861803988789
499,5.855,0.0422538929709345
500,5.862,0.0307639079946787
501,5.870,0.0252812722293095
502,5.877,0.0421629977284039
503,5.885,0.0306069071212167
504,5.892,0.0371017853602222
505,5.900,0.0432248194252388
506,5.908,0.0248598488321221
507,5.915,0.0388287949683038
508,5.923,0.02170330495515
509,5.930,0.0228684167003151
510,5.938,0.0238062903391537
511,5.945,0.0243764514059366
512,5.953,0.0425348419023928
513,5.960,0.0366101247301702
514,5.968,0.0315860967793874
515,5.975,0.0388659793857027
516,5.983,0.043918928550018
517,5.990,0.0299045347925711
518,5.998,0.043464452337365
519,6.005,0.0487198499964076
520,6.013,0.051901183484979
521,6.021,0.0453195416053761
522,6.028,0.0338584778426526
523,6.036,0.044608906072864
524,6.043,0.0312762266343967
525,6.051,0.0411424920509012
526,6.058,0.0383908451633836
527,6.066,0.0432496090368381
528,6.073,0.0410639916141702
529,6.081,0.0425678947178585
530,6.088,0.0351805904612797
531,6.096,0.0251986401906453
532,6.103,0.0394733248698845
533,6.111,0.0529836631914799
534,6.119,0.0323628379428308
535,6.126,0.0508724146036098
536,6.134,0.0768560591615649
537,6.141,0.0859992942397578
538,6.149,0.0467656022819994
539,6.156,0.0454476212653056
540,6.164,0.0409483067600403
541,6.171,0.0393080607925561
542,6.179,0.034259243230174
543,6.186,0.0403203032661925
544,6.194,0.0391799811326266
545,6.201,0.0357507515280626
546,6.209,0.0353251965289421
547,6.216,0.0420390496704076
548,6.224,0.0363250441967788
549,6.232,0.0548263576536914
550,6.239,0.0514756284858584
551,6.247,0.0420142600588084
552,6.254,0.037965290164263
553,6.262,0.0395890097240144
554,6.269,0.0323215219234987
555,6.277,0.0324578647872946
556,6.284,0.0265455424208717
557,6.292,0.036230017352315
558,6.299,0.0329949730386118
559,6.307,0.0350979584226155
560,6.314,0.0377752364753353
561,6.322,0.0511285739234688
562,6.329,0.0367464675939662
563,6.337,0.036407676235443
564,6.345,0.0367175463804337
565,6.352,0.0311440153725339
566,6.360,0.03873376812384
567,6.367,0.0438569545210199
568,6.375,0.0399484590922036
569,6.382,0.0324702595930942
570,6.390,0.0455261217020365
571,6.397,0.0333089747855358
572,6.405,0.043976770977083
573,6.412,0.0536157982872609
574,6.420,0.0613625519120289
575,6.427,0.049517249169517
576,6.435,0.0492239054322591
577,6.443,0.0396096677336804
578,6.450,0.0324578647872946
579,6.458,0.0250622973268494
580,6.465,0.0369571792925598
581,6.473,0.0383495291440515
582,6.480,0.0373331550684819
583,6.488,0.0401839604023965
584,6.495,0.0457037805851646
585,6.503,0.0469969719902592
586,6.510,0.0497568820816432
587,6.518,0.0852266846782476
588,6.525,0.110008033073639
589,6.533,0.0972165934884218
590,6.540,0.0876312770033756
591,6.548,0.102860361729186
592,6.556,0.0883956233610193
593,6.563,0.0711172640763368
594,6.571,0.0563385239612461
595,6.578,0.0640480931686152
596,6.586,0.0645521486044667
597,6.593,0.0544214606642368
598,6.601,0.0574540564832127
599,6.608,0.051153363535068
600,6.616,0.0613212358926968
601,6.623,0.0592223821106264
602,6.631,0.041671337098352
603,6.638,0.059590094682682
604,6.646,0.0588629327424371
605,6.654,0.0481786101431571
606,6.661,0.0353128017231424
607,6.669,0.0344616917249013
608,6.676,0.034201400803109
609,6.684,0.0478191607749679
610,6.691,0.0379446321545969
611,6.699,0.0417209163215505
612,6.706,0.040902859138775
613,6.714,0.0360399636633873
614,6.721,0.0262645934894134
615,6.729,0.0273718628075136
616,6.736,0.0311729365860664
617,6.744,0.0469432611651274
618,6.751,0.025566352762701
619,6.759,0.0405723309841182
620,6.767,0.0388040053567045
621,6.774,0.0329536570192797
622,6.782,0.0296235858611128
623,6.789,0.0246119527161296
624,6.797,0.0336064501247269
625,6.804,0.0330032362424783
626,6.812,0.0315530439639217
627,6.819,0.0385023984155802
628,6.827,0.0262480670816806
629,6.834,0.036862152448096
630,6.842,0.0385437144349123
631,6.849,0.0396385889472129
632,6.857,0.0330032362424783
633,6.865,0.034358401676571
634,6.872,0.0358581731783261
635,6.880,0.0449972766545857
636,6.887,0.0358292519647936
637,6.895,0.0237277899024227
638,6.902,0.0476538966976395
639,6.910,0.0876891194304405
640,6.917,0.141337970533167
641,6.925,0.0950061864541547
642,6.932,0.0614410523487599
643,6.940,0.058032480753862
644,6.947,0.0477571867459697
645,6.955,0.0479059244155653
646,6.962,0.0466375226220699
647,6.970,0.060358572642259
648,6.978,0.043051292144044
649,6.985,0.0376967360386044
650,6.993,0.037295970651083
651,7.000,0.0488644560640699
652,7.008,0.0503353063522925
653,7.015,0.031441490711725
654,7.023,0.0853671591439767
655,7.030,0.150886102600814
656,7.038,0.145651362951438
657,7.045,0.0887798623408078
658,7.053,0.0747158893601624
659,7.060,0.0458277286431608
660,7.068,0.0521449479990383
661,7.075,0.0687746457802069
662,7.083,0.0599578072547377
663,7.091,0.0770626392582254
664,7.098,0.0703859705341587
665,7.106,0.0686506977222107
666,7.113,0.0601478609436653
667,7.121,0.0644736481677358
668,7.128,0.0482199261624892
669,7.136,0.0738317265464555
670,7.143,0.0782608038188562
671,7.151,0.103546207650099
672,7.158,0.125150354158852
673,7.166,0.149142566585
674,7.173,0.14145778698923
675,7.181,0.10160435474149
676,7.189,0.0912422970930007
677,7.196,0.0848920249216576
678,7.204,0.0872759592371195
679,7.211,0.0844127590974053
680,7.219,0.0798473389612087
681,7.226,0.148725274789746
682,7.234,0.247011953178869
683,7.241,0.215066407031292
684,7.249,0.14681234309467
685,7.256,0.120481643974325
686,7.264,0.0928742798566185
687,7.271,0.0698158094673758
688,7.279,0.0660023408830233
689,7.286,0.0696670717977802
690,7.294,0.0695679133513832
691,7.302,0.0625731112784594
692,7.309,0.0606477847775837
693,7.317,0.0471043936405226
694,7.324,0.0617963701150159
695,7.332,0.0499593305763704
