#"+EI TIC Scan TCM-PEEK.d "
#Point,X(Minutes),Y(Counts)
0,2.095,0.133189726027135
1,2.102,0.139706381523101
2,2.110,0.139119755000959
3,2.117,0.115459151941243
4,2.125,0.119331737170744
5,2.132,0.12287275088773
6,2.140,0.107178365962025
7,2.147,0.112122182231958
8,2.155,0.0949612310008992
9,2.162,0.113554741202696
10,2.170,0.159090562254741
11,2.178,0.1621257168693
12,2.185,0.0924106809046308
13,2.193,0.095216286010526
14,2.200,0.138579888563916
15,2.208,0.167290580814244
16,2.215,0.093685955952765
17,2.223,0.0999560582727581
18,2.230,0.135089885848855
19,2.238,0.101537399332445
20,2.245,0.0786207067174731
21,2.253,0.119710068768357
22,2.260,0.129104594956279
23,2.268,0.0831096748869054
24,2.275,0.0847462778653443
25,2.283,0.0765165028880516
26,2.291,0.0847972888672697
27,2.298,0.0741104839639051
28,2.306,0.0907570742588835
29,2.313,0.141789330768387
30,2.321,0.120062894865007
31,2.328,0.0843934517686938
32,2.336,0.0706459867498072
33,2.343,0.0707054995853868
34,2.351,0.0669859473616621
35,2.358,0.0749436636620195
36,2.366,0.0597211305041243
37,2.373,0.0657701851491075
38,2.381,0.0693409552838832
39,2.389,0.0818216470882899
40,2.396,0.258090164241398
41,2.404,0.35329794841827
42,2.411,0.109091278534226
43,2.419,0.0751094494182769
44,2.426,0.0972099660024425
45,2.434,0.0683844989977826
46,2.441,0.061013409219567
47,2.449,0.0598486580089377
48,2.456,0.0636787340701674
49,2.464,0.167775185332535
50,2.471,0.374106186286993
51,2.479,0.204898441983721
52,2.486,0.159256348010998
53,2.494,0.117865170865389
54,2.502,0.0793008534098113
55,2.509,0.0663993208395204
56,2.517,0.05467529223034
57,2.524,0.0588581943882202
58,2.532,0.0573023588294964
59,2.539,0.0706204812488445
60,2.547,0.0619528618383591
61,2.554,0.0759851382846624
62,2.562,0.0643163715942345
63,2.569,0.0652090641279284
64,2.577,0.0699700909742961
65,2.584,0.0601632258541442
66,2.592,0.0642186005072109
67,2.600,0.0519121962927159
68,2.607,0.0701571313146891
69,2.615,0.0715854393685994
70,2.622,0.0681421967386371
71,2.630,0.0756323121880119
72,2.637,0.0655576393077518
73,2.645,0.0653961044683215
74,2.652,0.0493616461964475
75,2.660,0.0680231710674779
76,2.667,0.0738851853720681
77,2.675,0.0600271965156765
78,2.682,0.0570175474020798
79,2.690,0.076231691460635
80,2.697,0.0663525607544221
81,2.705,0.0523755462268713
82,2.713,0.0717342214575484
83,2.720,0.126515786608566
84,2.728,0.118978911074093
85,2.735,0.085817508905777
86,2.743,0.0738511780374512
87,2.750,0.0737746615345631
88,2.758,0.063776505157191
89,2.765,0.0717809815426467
90,2.773,0.094918721832628
91,2.780,0.0710073146801119
92,2.788,0.0566349648876395
93,2.795,0.0689796273535785
94,2.803,0.0805038628718845
95,2.810,0.0742125059677559
96,2.818,0.0553809444236409
97,2.826,0.151451664716417
98,2.833,0.198692103416135
99,2.841,0.07906705298432
100,2.848,0.0669901982784892
101,2.856,0.0629688309600394
102,2.863,0.0644736555168377
103,2.871,0.0578167197655772
104,2.878,0.0556189957659593
105,2.886,0.0854944392269164
106,2.893,0.0823657644421605
107,2.901,0.0756280612711848
108,2.908,0.0847080196139003
109,2.916,0.0754537736812731
110,2.924,0.0770563693250951
111,2.931,0.0621781604301962
112,2.939,0.0514020862734622
113,2.946,0.0666883831837641
114,2.954,0.265703556278759
115,2.961,6.02093908108866
116,2.969,35.0475382154235
117,2.976,79.2618342442552
118,2.984,100
119,2.991,2.63424639767744
120,2.999,0.154533579416075
121,3.006,0.126668819614342
122,3.014,0.102846681715196
123,3.021,0.0950547511710957
124,3.029,0.095288551596587
125,3.037,0.108887234526525
126,3.044,0.10795203282456
127,3.052,0.0781913641179345
128,3.059,0.0704631973262413
129,3.067,0.0867654633582234
130,3.074,0.0832287005580646
131,3.082,0.0645799284375156
132,3.089,0.0872373151260331
133,3.097,0.0750329329153889
134,3.104,0.0599846873474054
135,3.112,0.0686055466727925
136,3.119,0.0782891352049582
137,3.127,0.102124025854586
138,3.135,0.0882745388318489
139,3.142,0.0654981264721722
140,3.150,0.0545605174760079
141,3.157,0.0732943079330992
142,3.165,0.0830076528830547
143,3.172,0.0617658214979661
144,3.180,0.0663058006693239
145,3.187,0.0721083021383344
146,3.195,0.0506666776623715
147,3.202,0.0437546869014842
148,3.210,0.0552194095842106
149,3.217,0.0656341558106398
150,3.225,0.0534510281841312
151,3.232,0.0439204726577416
152,3.240,0.0445283537640189
153,3.248,0.0563203970424331
154,3.255,0.0594830791618059
155,3.263,0.0784506700443885
156,3.270,0.0589857218930336
157,3.278,0.0410213473816499
158,3.285,0.0490640820185496
159,3.293,0.0541354257932965
160,3.300,0.0660039855745988
161,3.308,0.0581015311929939
162,3.315,0.0631303657994697
163,3.323,0.0513383225210555
164,3.330,0.0461862113265934
165,3.338,0.0580547711078956
166,3.346,0.0473849698718395
167,3.353,0.0468366016011418
168,3.361,0.0410170964648228
169,3.368,0.04710440936125
170,3.376,0.0456378430558957
171,3.383,0.0350700638236903
172,3.391,0.0429130053697156
173,3.398,0.0456080866381059
174,3.406,0.0449661981972117
175,3.413,0.043486879141376
176,3.421,0.0447238959380662
177,3.428,0.0452467587078012
178,3.436,0.0462117168275561
179,3.443,0.0626457612811787
180,3.451,0.244806049156667
181,3.459,0.557779800552934
182,3.466,0.305985244132491
183,3.474,0.0731200203431876
184,3.481,0.0744633100605556
185,3.489,0.112147687732921
186,3.496,0.082722841455638
187,3.504,0.0454167953808858
188,3.511,0.0510705147609474
189,3.519,0.0478695743901305
190,3.526,0.0396780576642819
191,3.534,0.0494679191171254
192,3.541,0.0433295952187728
193,3.549,0.0656639122284296
194,3.557,0.127331962639372
195,3.564,0.0827058377883296
196,3.572,0.0467515832645995
197,3.579,0.035095569324653
198,3.587,0.0353336206669714
199,3.594,0.0446728849361408
200,3.602,0.0350998202414801
201,3.609,0.0517336577859771
202,3.617,0.0385430628714425
203,3.624,0.0342496368760573
204,3.632,0.0336375048529529
205,3.639,0.0346194666400162
206,3.647,0.036625899382414
207,3.654,0.0357629632665099
208,3.662,0.0424624081860415
209,3.670,0.042254113261513
210,3.677,0.0331656530851433
211,3.685,0.035728955931893
212,3.692,0.0504413790705345
213,3.700,0.0318776252865277
214,3.707,0.0519504545441599
215,3.715,0.0426494485264346
216,3.722,0.0369914782295458
217,3.730,0.0352783587482189
218,3.737,0.0419990582518861
219,3.745,0.0447961615241271
220,3.752,0.0441160148317889
221,3.760,0.0295438719484422
222,3.767,0.0393252315676314
223,3.775,0.0361795531155671
224,3.783,0.0308871616658102
225,3.790,0.0302750296427058
226,3.798,0.0387641105464524
227,3.805,0.0356609412626592
228,3.813,0.0427174631956684
229,3.820,0.0322389532168324
230,3.828,0.0406047575325927
231,3.835,0.0266872558406216
232,3.843,0.0425941866076821
233,3.850,0.0445581101818087
234,3.858,0.0344919391352028
235,3.865,0.0332039113365873
236,3.873,0.0366514048833767
237,3.881,0.0363920989569228
238,3.888,0.0422711169288214
239,3.896,0.0368682016415595
240,3.903,0.0348447652318533
241,3.911,0.0398991053392918
242,3.918,0.0420160619191946
243,3.926,0.037331551575715
244,3.933,0.0288934816738937
245,3.941,0.0294078426099745
246,3.948,0.0435506428937827
247,3.956,0.029539621031615
248,3.963,0.042368888015845
249,3.971,0.0858345125730855
250,3.978,0.0495189301190508
251,3.986,0.0372380314055185
252,3.994,0.0368214415564613
253,4.001,0.0333867007601532
254,4.009,0.0253779734578705
255,4.016,0.038300760612297
256,4.024,0.0374548281637013
257,4.031,0.0269338090165942
258,4.039,0.0432063186307865
259,4.046,0.0316778321956534
260,4.054,0.0328510852399368
261,4.061,0.0291910458517917
262,4.069,0.0242132222472412
263,4.076,0.0242599823323395
264,4.084,0.0311337148417828
265,4.092,0.0375100900824538
266,4.099,0.0354653990886119
267,4.107,0.0262791678252186
268,4.114,0.0344366772164503
269,4.122,0.0296671485364285
270,4.129,0.0281240657281861
271,4.137,0.0277287304632645
272,4.144,0.0271336021074685
273,4.152,0.0329913654952316
274,4.159,0.0290210091787071
275,4.167,0.0380542074363243
276,4.174,0.0298329342926859
277,4.182,0.0309084162499457
278,4.189,0.0406812740354808
279,4.197,0.0233502861313371
280,4.205,0.0331656530851433
281,4.212,0.031588562942284
282,4.220,0.0345769574717451
283,4.227,0.0319796472903785
284,4.235,0.0323792334721272
285,4.242,0.0493276388618306
286,4.250,0.275302126474383
287,4.257,1.01982045232561
288,4.265,0.750911704759203
289,4.272,0.148637557776867
290,4.280,0.0470619001929789
291,4.287,0.0412976569754123
292,4.295,0.03722102773821
293,4.303,0.0393422352349399
294,4.310,0.0414974500662867
295,4.318,0.0294333481109372
296,4.325,0.0330041182457129
297,4.333,0.0235840865568284
298,4.340,0.0283918734882943
299,4.348,0.0239879236554042
300,4.355,0.0244385208390783
301,4.363,0.0244257680885969
302,4.370,0.0311209620913014
303,4.378,0.026330178827144
304,4.385,0.0254374862934501
305,4.393,0.032370731638473
306,4.400,0.0378756689295856
307,4.408,0.0434146135553151
308,4.416,0.0942938370590423
309,4.423,0.124075760349803
310,4.431,0.065340842549569
311,4.438,0.0376418685040943
312,4.446,0.0356141811775609
313,4.453,0.0290422637628427
314,4.461,0.0338713052784442
315,4.468,0.0360392728602723
316,4.476,0.0267085104247571
317,4.483,0.0356269339280423
318,4.491,0.0243577534193631
319,4.498,0.0276437121267222
320,4.506,0.0265682301694624
321,4.513,0.0281325675618403
322,4.521,0.0283323606527147
323,4.529,0.0334887227640039
324,4.536,0.0319031307874904
325,4.544,0.0242174731640683
326,4.551,0.0303642988960752
327,4.559,0.0218582143250201
328,4.566,0.031180474926881
329,4.574,0.0180238873469633
330,4.581,0.0216499194004915
331,4.589,0.0348745216496431
332,4.596,0.0313845189345825
333,4.604,0.0302665278090515
334,4.611,0.0264024444132049
335,4.619,0.0319583927062429
336,4.627,0.0394400063219635
337,4.634,0.0306746158244545
338,4.642,0.0248083506030372
339,4.649,0.0293780861921847
340,4.657,0.0357459595992015
341,4.664,0.0320051527913412
342,4.672,0.0269550636007297
343,4.679,0.035167834910714
344,4.687,0.026742517759374
345,4.694,0.0328085760716657
346,4.702,0.0353378715837985
347,4.709,0.0321666876307715
348,4.717,0.0206679576134282
349,4.724,0.0242089713304141
350,4.732,0.0216711739846271
351,4.740,0.0234693118024963
352,4.747,0.0412806533081039
353,4.755,0.0319371381221073
354,4.762,0.0336672612707427
355,4.770,0.0192183949753823
356,4.777,0.029165540350829
357,4.785,0.0299689636311536
358,4.792,0.0244512735895596
359,4.800,0.0242259749977226
360,4.807,0.0274821772872919
361,4.815,0.0306916194917629
362,4.822,0.0322262004663511
363,4.830,0.0222025385880163
364,4.838,0.0295693774494048
365,4.845,0.0290507655964969
366,4.853,0.0218114542399218
367,4.860,0.0207274704490078
368,4.868,0.0271208493569872
369,4.875,0.0243705061698444
370,4.883,0.0229592017832426
371,4.890,0.0199580545033001
372,4.898,0.0179516217609023
373,4.905,0.0316225702769009
374,4.913,0.0176455557493501
375,4.920,0.0307426304936883
376,4.928,0.0326597939827167
377,4.935,0.0248126015198643
378,4.943,0.0251271693650707
379,4.951,0.0183384551921697
380,4.958,0.0283238588190604
381,4.966,0.0286214229969584
382,4.973,0.0293695843585305
383,4.981,0.030321789727804
384,4.988,0.0263386806607982
385,4.996,0.0311592203427455
386,5.003,0.0329020962418622
387,5.011,0.0269805691016924
388,5.018,0.0217094322360711
389,5.026,0.025922090811741
390,5.033,0.0192694059773077
391,5.041,0.0314610354374706
392,5.049,0.0236053411409639
393,5.056,0.0400691420123764
394,5.064,0.0246850740150509
395,5.071,0.0253099587886366
396,5.079,0.0313505115999656
397,5.086,0.0331061402495637
398,5.094,0.0179941309291735
399,5.101,0.0225171064332228
400,5.109,0.0229294453654528
401,5.116,0.0176243011652146
402,5.124,0.021968738162525
403,5.131,0.0288382197551412
404,5.139,0.0186190157027592
405,5.146,0.0109673654139541
406,5.154,0.00763464662149671
407,5.162,0.0111586566711742
408,5.169,0.0294758572792083
409,5.177,0.0245745501775459
410,5.184,0.0214926354778883
411,5.192,0.0190738638032604
412,5.199,0.0190015982171995
413,5.207,0.0267637723435096
414,5.214,0.0163405242834261
415,5.222,0.0198220251648325
416,5.229,0.0181811712695665
417,5.237,0.0228784343635274
418,5.244,0.0200388219230153
419,5.252,0.0217646941548236
420,5.260,0.0249486308583319
421,5.267,0.0273333951983429
422,5.275,0.0228274233616021
423,5.282,0.0164382953704498
424,5.290,0.0178623525075329
425,5.297,0.0125444555568134
426,5.305,0.0200728292576322
427,5.312,0.0186232666195863
428,5.320,0.0104487535610462
429,5.327,0.0150354928175021
430,5.335,0.0142533241213132
431,5.342,0.0209272635398821
432,5.350,0.019205642224901
433,5.357,0.0103892407254666
434,5.365,0.0247403359338034
435,5.373,0.0178921089253227
436,5.380,0.0208805034547839
437,5.388,0.0191673839734569
438,5.395,0.0116900212745634
439,5.403,0.0110098745822252
440,5.410,0.0294375990277643
441,5.418,0.0183809643604408
442,5.425,0.0208082378687229
443,5.433,0.0161407311925518
444,5.440,0.0117920432784142
445,5.448,0.0148016923920109
446,5.455,0.0202258622634083
447,5.463,0.0148569543107634
448,5.470,0.0216881776519355
449,5.478,0.0273248933646887
450,5.486,0.0324344953908797
451,5.493,0.0102277058860362
452,5.501,0.0209527690408448
453,5.508,0.0209570199576719
454,5.516,0.01872103770661
455,5.523,0.0236223448082724
456,5.531,0.0135094136765682
457,5.538,0.0170206709757644
458,5.546,0.0168166269680629
459,5.553,0.0117155267755261
460,5.561,0.006750455921457
461,5.568,0.0207274704490078
462,5.576,0.00945403902350149
463,5.584,0.0224618445144703
464,5.591,0.0258583270593343
465,5.599,0.0239156580693432
466,5.606,0.0101936985514193
467,5.614,0.0210930492961396
468,5.621,0.0144148589607435
469,5.629,0.0171737039815405
470,5.636,0.0190526092191249
471,5.644,0.015851668848308
472,5.651,0.0186955322056473
473,5.659,0.0157879050959013
474,5.666,0.0168676379699883
475,5.674,0.017713570418584
476,5.681,0.0231504930404627
477,5.689,0.0158601706819623
478,5.697,0.0208507470369941
479,5.704,0.0318691234528735
480,5.712,0.0222960587582128
481,5.719,0.0117665377774515
482,5.727,0.0209272635398821
483,5.734,0.0143425933746826
484,5.742,0.0166040811267072
485,5.749,0.0169186489719136
486,5.757,0.0134031407558904
487,5.764,0.0176540575830044
488,5.772,0.014767685057394
489,5.779,0.0246085575121628
490,5.787,0.00960282111245048
491,5.795,0.0250421510285285
492,5.802,0.0154520826665593
493,5.810,0.0176880649176213
494,5.817,0.0108823470774118
495,5.825,0.0202641205148523
496,5.832,0.0202683714316795
497,5.840,0.0162342513627483
498,5.847,0.0214288717254816
499,5.855,0.018610513869105
500,5.862,0.00998965454371785
501,5.870,0.016072716523318
502,5.877,0.0123616661332475
503,5.885,0.00934351518599653
504,5.892,0.0122128840442985
505,5.900,0.0161789894439958
506,5.908,0.0136454430150359
507,5.915,0.0197965196638698
508,5.923,0.0150652492352919
509,5.930,0.0214671299769256
510,5.938,0.0171864567320218
511,5.945,0.0196392357412666
512,5.953,0.0116815194409092
513,5.960,0.0139642617770694
514,5.968,0.0128717761525011
515,5.975,0.0164425462872769
516,5.983,0.0203533897682217
517,5.990,0.0120641019553495
518,5.998,0.0185467501166983
519,6.006,0.0118430542803395
520,6.013,0.0205701865264045
521,6.021,0.0179473708440752
522,6.028,0.0193459224801957
523,6.036,0.0266107393377335
524,6.043,0.0193501733970228
525,6.051,0.0138537379395645
526,6.058,0.00642313532576922
527,6.066,0.00978561053601638
528,6.073,0.0193501733970228
529,6.081,0.0125657101409489
530,6.088,0.0151970276569325
531,6.096,0.00653365916327419
532,6.103,0.0266192411713877
533,6.111,0.0103934916422937
534,6.119,0.00917347851291197
535,6.126,0.0141853094520793
536,6.134,0.0184999900316
537,6.141,0.0333867007601532
538,6.149,0.0139345053592796
539,6.156,0.0154435808329051
540,6.164,0.0247700923515932
541,6.171,0.00884190700039708
542,6.179,0.0159919491036028
543,6.186,0.0167698668829647
544,6.194,0.0178921089253227
545,6.201,0.017156700314232
546,6.209,0.0188400633777692
547,6.216,0.0105762810658596
548,6.224,0.0126337248101827
549,6.232,0.021331100638458
550,6.239,0.0200898329249407
551,6.247,0.023830639732801
552,6.254,0.0114562208490722
553,6.262,0.0114052098471468
554,6.269,0.0206296993619841
555,6.277,0.019579722905687
556,6.284,0.019320416979233
557,6.292,0.00576849413439367
558,6.299,0.0140875383650557
559,6.307,0.0195627192383785
560,6.314,0.0210887983793125
561,6.322,0.0114349662649366
562,6.330,0.0151587694054885
563,6.337,0.0136284393477274
564,6.345,0.0150865038194275
565,6.352,0.0204426590215911
566,6.360,0.0135434210111851
567,6.367,0.013500911842914
568,6.375,0.0144743717963231
569,6.382,0.0164042880358328
570,6.390,0.0178240942560889
571,6.397,0.0182449350219732
572,6.405,0.0174882718267469
573,6.412,0.0179728763450379
574,6.420,0.00644013899307768
575,6.427,0.0223215642591755
576,6.435,0.0132968678352125
577,6.443,0.0333952025938074
578,6.450,0.141109184076049
579,6.458,0.24559671968651
580,6.465,0.184562055882808
581,6.473,0.122647452295893
582,6.480,0.101992247432946
583,6.488,0.0781020948645652
584,6.495,0.0565244410501346
585,6.503,0.0401371566816102
586,6.510,0.0292123004359273
587,6.518,0.0350488092395548
588,6.525,0.031588562942284
589,6.533,0.0305938484047393
590,6.541,0.0243364988352275
591,6.548,0.0321964440485613
592,6.556,0.0290805220142867
593,6.563,0.0224363390135076
594,6.571,0.0236563521428893
595,6.578,0.00953055552638954
596,6.586,0.0226531357716904
597,6.593,0.035839479769398
598,6.601,0.0240219309900211
599,6.608,0.0239369126534788
600,6.616,0.0234012971332625
601,6.623,0.0146444084694077
602,6.631,0.0170249218925915
603,6.638,0.01514176573818
604,6.646,0.0185254955325627
605,6.654,0.0157538977612844
606,6.661,0.0260028582314562
607,6.669,0.0196647412422293
608,6.676,0.0143808516261266
609,6.684,0.0127825068991317
610,6.691,0.0147421795564313
611,6.699,0.0135349191775309
612,6.706,0.00784719246285241
613,6.714,0.0117707886942786
614,6.721,0.0079364617162218
615,6.729,0.0133606315876192
616,6.736,0.0155753592545456
617,6.744,0.00688223434309753
618,6.752,0.0190781147200875
619,6.759,0.0183001969407257
620,6.767,0.0125784628914303
621,6.774,0.0160599637728366
622,6.782,0.0187933032926709
623,6.789,0.0205191755244792
624,6.797,0.017790086921472
625,6.804,0.0135689265121478
626,6.812,0.0119025671159191
627,6.819,0.0103424806403683
628,6.827,0.0258370724751988
629,6.834,0
630,6.842,0.0183299533585155
631,6.849,0.0188485652114234
632,6.857,0.0190441073854706
633,6.865,0.01808765109937
634,6.872,0.00767715578976785
635,6.880,0.0149334708136514
636,6.887,0.0192396495595179
637,6.895,0.00613407298152547
638,6.902,0.00963257753024028
639,6.910,0.0196349848244395
640,6.917,0.0152055294905867
641,6.925,0.014695419471333
642,6.932,0.0290550165133241
643,6.940,0.0113244424274316
644,6.947,0.0129185362375994
645,6.955,0.023720115895296
646,6.963,0.0195967265729954
647,6.970,0.00831904423066206
648,6.978,0.0165488192079547
649,6.985,0.0254374862934501
650,6.993,0.0135221664270496
651,7.000,0.0103594843076768
652,7.008,0.0203108805999506
653,7.015,0.01092910716251
654,7.023,0.0233120278798931
655,7.030,0.0295778792830591
656,7.038,0.0339860800327763
657,7.045,0.0343644116303894
658,7.053,0.0174117553238589
659,7.060,0.0227211504409242
660,7.068,0.0146784158040246
661,7.076,0.018351207942651
662,7.083,0.0178623525075329
663,7.091,0.0194351917335651
664,7.098,0.008727132246065
665,7.106,0.031924385371626
666,7.113,0.0205531828590961
667,7.121,0.00765165028880516
668,7.128,0.00813200389026904
669,7.136,0.0237073631448147
670,7.143,0.0134796572587784
671,7.151,0.0167401104651749
672,7.158,0.0325322664779033
673,7.166,0.0275416901228715
674,7.173,0.0267892778444723
675,7.181,0.0306788667412816
676,7.189,0.0277329813800916
677,7.196,0.0208209906192043
678,7.204,0.0218284579072303
679,7.211,0.0230782274544018
680,7.219,0.0155413519199287
681,7.226,0.0260666219838629
682,7.234,0.0444518372611309
683,7.241,0.0418927853312083
684,7.249,0.0349255326515685
685,7.256,0.0263896916627236
686,7.264,0.0317798541995041
687,7.271,0.0208167397023772
688,7.279,0.0286001684128229
689,7.287,0.0235373264717301
690,7.294,0.0228784343635274
691,7.302,0.0215436464798137
692,7.309,0.018759295958054
693,7.317,0.0274141626180581
694,7.324,0.00771541404121187
695,7.332,0.00885040883405131
