#"+EI TIC Scan TCM-End-Blank.d "
#Point,X(Minutes),Y(Counts)
0,2.095,0.129490092761109
1,2.102,0.128172237026087
2,2.110,0.131587464470114
3,2.117,0.136501429808872
4,2.125,0.142216444712054
5,2.132,0.120355543695811
6,2.140,0.0987401256106011
7,2.148,0.112138325583322
8,2.155,0.095983826034085
9,2.163,0.0927193337231487
10,2.170,0.101026992915492
11,2.178,0.0943860336233233
12,2.185,0.0897563116783939
13,2.193,0.0873574697032073
14,2.200,0.0926978001327072
15,2.208,0.0747387857044695
16,2.215,0.0763753385780259
17,2.223,0.0797388854049932
18,2.230,0.0853677659464097
19,2.238,0.0844375148393355
20,2.245,0.0698119002114469
21,2.253,0.0775898330789283
22,2.261,0.0880077841345415
23,2.268,0.0660650554746204
24,2.276,0.0620253539077889
25,2.283,0.0697386860039457
26,2.291,0.0673829112096421
27,2.298,0.0534162244492644
28,2.306,0.0661468831182982
29,2.313,0.0546996264395797
30,2.321,0.0534851319386773
31,2.328,0.0955273139167245
32,2.336,0.187708307878835
33,2.343,0.108886753426651
34,2.351,0.0823616767207718
35,2.358,0.0872498017509996
36,2.366,0.0553887013337088
37,2.374,0.0824090506197432
38,2.381,0.065427661197551
39,2.389,0.0717413099150082
40,2.396,0.222149132431021
41,2.404,0.36880580349212
42,2.411,0.126527070716354
43,2.419,0.0633389029247224
44,2.426,0.0647256661491571
45,2.434,0.0542431143222193
46,2.441,0.0400610916574262
47,2.449,0.059243214022743
48,2.456,0.0504402822502447
49,2.464,0.0522491038473334
50,2.472,0.0431145547820355
51,2.479,0.0572578169840337
52,2.487,0.0518141253204144
53,2.494,0.065750665054174
54,2.502,0.0533430102417632
55,2.509,0.0573267244734466
56,2.517,0.0354270629944085
57,2.524,0.056573048807993
58,2.532,0.0598806082998124
59,2.539,0.0526539353476342
60,2.547,0.0598418478370176
61,2.554,0.0452205399272173
62,2.562,0.0507589793887794
63,2.569,0.124011947352783
64,2.577,0.242300266366207
65,2.585,0.116195254022507
66,2.592,0.0578607575163966
67,2.600,0.0510432227826076
68,2.607,0.0522663307196866
69,2.615,0.0578478373621317
70,2.622,0.0720987675163376
71,2.630,0.0391825211674117
72,2.637,0.0670039200178712
73,2.645,0.039453844406975
74,2.652,0.0573611782181531
75,2.660,0.0392040547578533
76,2.667,0.0514092938201136
77,2.675,0.0450999518207447
78,2.683,0.0356854660797069
79,2.690,0.0447295740651504
80,2.698,0.0326535365455392
81,2.705,0.0566376495793176
82,2.713,0.0391480674227053
83,2.720,0.0501904926011229
84,2.728,0.063136487174572
85,2.735,0.0754450874709517
86,2.743,0.0632097013820732
87,2.750,0.0453928086507496
88,2.758,0.0596308186506906
89,2.765,0.0708928864516118
90,2.773,0.0817501227522323
91,2.780,0.060423254778939
92,2.788,0.0615128544552805
93,2.796,0.0728696700541445
94,2.803,0.0707421513185211
95,2.811,0.0755699822955126
96,2.818,0.0467321979762129
97,2.826,0.0510862899634907
98,2.833,0.0472059369659266
99,2.841,0.0445185448788234
100,2.848,0.0412497458497988
101,2.856,0.0563534061854894
102,2.863,0.0708239789621989
103,2.871,0.0570554012338833
104,2.878,0.0564653808557854
105,2.886,0.0740324839379872
106,2.894,0.0574645394522725
107,2.901,0.0564137002387257
108,2.909,0.0395012183059464
109,2.916,0.0515212684904096
110,2.924,0.0438553102932242
111,2.931,0.0535755730185318
112,2.939,0.0535454259919136
113,2.946,0.0649065483088659
114,2.954,0.161075563220748
115,2.961,5.17819972034757
116,2.969,34.6789688355974
117,2.976,87.9477011104916
118,2.984,100
119,2.991,2.43938541926999
120,2.999,0.141393861557188
121,3.007,0.103748838747301
122,3.014,0.10418381727422
123,3.022,0.0753891001358037
124,3.029,0.0606859645823256
125,3.037,0.0914617720413633
126,3.044,0.0818104168054686
127,3.052,0.0625421600783857
128,3.059,0.0767629432059735
129,3.067,0.0803202923469146
130,3.074,0.0412109853870041
131,3.082,0.0427441770264411
132,3.089,0.0606299772471777
133,3.097,0.0524730531879253
134,3.105,0.0521888097940971
135,3.112,0.0507546726706911
136,3.120,0.0668704117571337
137,3.127,0.0771893082967158
138,3.135,0.0700186226796856
139,3.142,0.0363142469205997
140,3.150,0.0401127722744859
141,3.157,0.0624344921261781
142,3.165,0.0681107465665659
143,3.172,0.0464910217632677
144,3.180,0.0477701170354947
145,3.187,0.0441094066604343
146,3.195,0.048786502504335
147,3.202,0.0350523785207259
148,3.210,0.0269772821051514
149,3.218,0.0490965862066931
150,3.225,0.0487477420415403
151,3.233,0.0343848372170384
152,3.240,0.0297465018359324
153,3.248,0.027885999621784
154,3.255,0.0448846159163294
155,3.263,0.0572147498031507
156,3.270,0.0424211731698182
157,3.278,0.0340015393071791
158,3.285,0.0399620371413952
159,3.293,0.0453626616241314
160,3.300,0.0459871357469359
161,3.308,0.0437433356229282
162,3.315,0.0508537271867221
163,3.323,0.0311763322412501
164,3.331,0.0246990282364373
165,3.338,0.0270332694402993
166,3.346,0.0307542738685961
167,3.353,0.00905272142162008
168,3.361,0.0285449274892949
169,3.368,0.0216886322927111
170,3.376,0.0259824302267526
171,3.383,0.0203018690682764
172,3.391,0.0241219280126042
173,3.398,0.0333339980034916
174,3.406,0.0238893652358357
175,3.413,0.0295570062400469
176,3.421,0.0205818057440163
177,3.429,0.0340058460252674
178,3.436,0.0262236064396977
179,3.444,0.0251684605080627
180,3.451,0.0227351647881695
181,3.459,0.0157712016393781
182,3.466,0.0356036384360291
183,3.474,0.0217144726012409
184,3.481,0.0377096235812109
185,3.489,0.0984128150358898
186,3.496,0.0648591744098946
187,3.504,0.0288248641650348
188,3.511,0.0313744412733122
189,3.519,0.0150046058196595
190,3.526,0.0159736173895285
191,3.534,0.0285018603084118
192,3.542,0.0104610182364963
193,3.549,0.00466848240772415
194,3.557,0.0287645701117985
195,3.564,0.0212536537657921
196,3.572,0.0225715095008139
197,3.579,0.0198582771051809
198,3.587,0.00668833319113986
199,3.594,0.0142250898456761
200,3.602,0.0133551327918382
201,3.609,0.00480199066846165
202,3.617,0.0168349610071898
203,3.624,0.0232519709587663
204,3.632,0.0269256014880917
205,3.640,0.0232218239321482
206,3.647,0.0278644660313425
207,3.655,0.0155644791711394
208,3.662,0.0138805523986116
209,3.670,0.0273907270416288
210,3.677,0.01919934923767
211,3.685,0.0138891658347882
212,3.692,0.0135101746430172
213,3.700,0.0164688899696837
214,3.707,0.0234888404536232
215,3.715,0.0184672071626579
216,3.722,0.0186739296308966
217,3.730,0.0203190959406296
218,3.737,0.0162147936024736
219,3.745,0.0198152099242978
220,3.753,0.0167014527464523
221,3.760,0.024427704996874
222,3.768,0.0200908398819494
223,3.775,0.0237429368208332
224,3.783,0.0132474648396305
225,3.790,0.0238290711825994
226,3.798,0.0198668905413575
227,3.805,0.0212708806381454
228,3.813,0.022080543638747
229,3.820,0.0287688768298868
230,3.828,0.0038975798699173
231,3.835,0.0103662704385535
232,3.843,0.0276017562279558
233,3.851,0.0187902110192809
234,3.858,0.0282692975316433
235,3.866,0.0210297044252002
236,3.873,0.00955660743795193
237,3.881,0.0425891351752621
238,3.888,0.0404400828491972
239,3.896,0.0245353729490816
240,3.903,0.0234285464003869
241,3.911,0.00911732219294467
242,3.918,0.0258833757107215
243,3.926,0.0203923101481309
244,3.933,0.0164645832515954
245,3.941,0.00547383869023745
246,3.948,0.0204482974832788
247,3.956,0.0128813938021245
248,3.964,0.0296259137294598
249,3.971,0.0724002377825191
250,3.979,0.0571975229307975
251,3.986,0.0290617336598917
252,3.994,0.0156333866605523
253,4.001,0.0269772821051514
254,4.009,0.0276275965364856
255,4.016,0.0227610050966994
256,4.024,0.0175283426194071
257,4.031,0.0202286548607752
258,4.039,0.021546510595797
259,4.046,0.0395399787687412
260,4.054,0.0281745497337005
261,4.061,0.0278644660313425
262,4.069,0.0356122518722057
263,4.077,0.0163224615546813
264,4.084,0.0368267463731081
265,4.092,0.0533042497789685
266,4.099,0.0616076022532232
267,4.107,0.0194146851420853
268,4.114,0.00607677922260035
269,4.122,0.0172225656351373
270,4.129,0.0233467187567091
271,4.137,0.0250392589654135
272,4.144,0.0328947127584844
273,4.152,0.0349533240046948
274,4.159,0.0225112154475776
275,4.167,0.0369774815061989
276,4.175,0.033493346572759
277,4.182,0.0322788520718566
278,4.190,0.0378259049695952
279,4.197,0.0194189918601736
280,4.205,0.0172010320446958
281,4.212,0.0139666867603777
282,4.220,0.0184069131094216
283,4.227,0.0186739296308966
284,4.235,0.0168134274167482
285,4.242,0.0110596520507709
286,4.250,0.0177479852419107
287,4.257,0.0124636421475588
288,4.265,0.0246258140289361
289,4.272,0.0106978877313531
290,4.280,0.0136996702389027
291,4.288,0.00673570709011123
292,4.295,0.0153792902933422
293,4.303,0.0142767704627358
294,4.310,0.00938433871441967
295,4.318,0.00390188658800561
296,4.325,0.015896096463939
297,4.333,0.0010723728039883
298,4.340,0.0168909483423377
299,4.348,0.0154094373199603
300,4.355,0.0152328618783398
301,4.363,0.0207497677494603
302,4.370,0.0111543998487136
303,4.378,0.0180150017633857
304,4.386,0.0195352732485579
305,4.393,0.0177178382152926
306,4.401,0.0140097539412608
307,4.408,0.0309007022835985
308,4.416,0.0890629300661766
309,4.423,0.128107636254763
310,4.431,0.0381790558528363
311,4.438,0.0417665520203956
312,4.446,0.00897520049603056
313,4.453,0.0324468140773005
314,4.461,0.0142724637446474
315,4.468,0.00686921535084873
316,4.476,0.0292124687929824
317,4.483,0.0272270717542731
318,4.491,0.0237041763580385
319,4.499,0.0154826515274616
320,4.506,0.0300436653840255
321,4.514,0.0230624753628808
322,4.521,0.0251383134814445
323,4.529,0.0203277093768063
324,4.536,0.0147031355534781
325,4.544,0.0208315953931381
326,4.551,0.0168263475710132
327,4.559,0.0276921973078102
328,4.566,0.014337064515972
329,4.574,0.0192294962642881
330,4.581,0.00856606227764145
331,4.589,0.0253364225135066
332,4.597,0.0116453657107805
333,4.604,0.0292081620748941
334,4.612,0.0280065877282566
335,4.619,0.032214251300532
336,4.627,0.0143758249787668
337,4.634,0.0181829637688297
338,4.642,0.0277094241801635
339,4.649,0.0224939885752244
340,4.657,0.0300178250754957
341,4.664,0.0316759115394937
342,4.672,0.0136566030580196
343,4.679,0.0278989197760489
344,4.687,0.0154438910646668
345,4.694,0.0264733960888195
346,4.702,0.0183724593647152
347,4.710,0.0265853707591155
348,4.717,0.00704579079246929
349,4.725,0.00777362614939307
350,4.732,0.0290531202237151
351,4.740,0.0331660359980477
352,4.747,0.0221020772291885
353,4.755,0.0179245606835313
354,4.762,0.0157582814851132
355,4.770,0.0344925051692461
356,4.777,0.0230581686447925
357,4.785,0.0239841130337784
358,4.792,0.0158185755383494
359,4.800,0.0260771780246953
360,4.807,0.011524777604308
361,4.815,0.0197936763338563
362,4.823,0.0188418916363406
363,4.830,0.0415555228340686
364,4.838,0.0425676015848206
365,4.845,0.0233251851662675
366,4.853,0.0203621631215127
367,4.860,0.02212361081963
368,4.868,0.0172096454808724
369,4.875,0.0143542913883253
370,4.883,0.0229074335117018
371,4.890,0.0170330700392519
372,4.898,0.0186179422957486
373,4.905,0.0321841042739138
374,4.913,0.024216675810547
375,4.921,0.0105772996248805
376,4.928,0.0245870535661413
377,4.936,0.0145222533937692
378,4.943,0.0161544995492373
379,4.951,0.0249875783483538
380,4.958,0.0240444070870147
381,4.966,0.00714915202658864
382,4.973,0.0213699351541764
383,4.981,0.00673570709011123
384,4.988,0.0193500843707607
385,4.996,0.0263786482908768
386,5.003,0.00977194334236725
387,5.011,0.0426623493827633
388,5.018,0.037485674240619
389,5.026,0.0205731923078397
390,5.034,0.00119726762854918
391,5.041,0.00976763662427894
392,5.049,0.0227911521233175
393,5.056,0.0245569065395232
394,5.064,0.0109046101995918
395,5.071,0.0313442942466941
396,5.079,0.0140054472231725
397,5.086,0.0145782407289172
398,5.094,0.0211373723774079
399,5.101,0.0120932643919644
400,5.109,0.0116582858650455
401,5.116,0.0140786614306737
402,5.124,0.00668402647305155
403,5.132,0.0220762369206587
404,5.139,0.0185964087053071
405,5.147,0.012958914727714
406,5.154,0.00793297471866041
407,5.162,0.00985807770413338
408,5.169,0.0211890529944675
409,5.177,0.00938433871441967
410,5.184,0.0120846509557878
411,5.192,0.0217101658831526
412,5.199,0.0116022985298975
413,5.207,0.0170115364488103
414,5.214,0.0280841086538461
415,5.222,0.015306076085841
416,5.229,0.0153792902933422
417,5.237,0.0106246735238519
418,5.245,0.00879431833632169
419,5.252,0.0261331653598433
420,5.260,0.0278687727494308
421,5.267,0.0108141691197374
422,5.275,0.0107926355292959
423,5.282,0.00815261734116404
424,5.290,0
425,5.297,0.0145136399575926
426,5.305,0.00314821092255199
427,5.312,0.016641158693216
428,5.320,0.0176058635449966
429,5.327,0.00609400609495357
430,5.335,0.0263441945461703
431,5.343,0.0111156393859188
432,5.350,0.0118477814609309
433,5.358,0.014238009999941
434,5.365,0.0236912562037736
435,5.373,0.0195826471475293
436,5.380,0.00825597857528339
437,5.388,0.0194835926314982
438,5.395,0.0142337032818527
439,5.403,0.0226447237083151
440,5.410,0.00952215369324548
441,5.418,0.00782530676645275
442,5.425,0.0132130110949241
443,5.433,0.0106978877313531
444,5.440,0.0195438866847345
445,5.448,0.0204009235843075
446,5.456,0.0189237192800184
447,5.463,0.0169297088051325
448,5.471,0.0209952506804938
449,5.478,0.0333124644130501
450,5.486,0.0211072253507897
451,5.493,0.0162837010918865
452,5.501,0.0154223574742253
453,5.508,0.0121104912643176
454,5.516,0.021167519404026
455,5.523,0.0190141603598728
456,5.531,0.0109175303538568
457,5.538,0.0166110116665978
458,5.546,0.0102542957682576
459,5.554,0.0259049093011631
460,5.561,0.012691898206239
461,5.569,0.0104868585450261
462,5.576,0.0112405342104797
463,5.584,0.0204956713822502
464,5.591,0.0109649042528281
465,5.599,0.0159822308257051
466,5.606,0.0110036647156229
467,5.614,0.0427097232817347
468,5.621,0.14629490674168
469,5.629,0.181373125570936
470,5.636,0.111978977014055
471,5.644,0.0804710274800053
472,5.651,0.0697903666210054
473,5.659,0.0626498280305934
474,5.667,0.0610391154655668
475,5.674,0.052412759134689
476,5.682,0.0404573097215504
477,5.689,0.038708782177698
478,5.697,0.0347293746641029
479,5.704,0.03572853326059
480,5.712,0.0285793812340013
481,5.719,0.030978223209188
482,5.727,0.0549623362429664
483,5.734,0.0341436610040932
484,5.742,0.0302245475437344
485,5.749,0.02532780907733
486,5.757,0.0199917853659184
487,5.764,0.0325846290561263
488,5.772,0.0337560563761457
489,5.780,0.0421369297759899
490,5.787,0.0361936588141271
491,5.795,0.0241520750392224
492,5.802,0.0144619593405329
493,5.810,0.0224595348305179
494,5.817,0.0426451225104101
495,5.825,0.0365941835963396
496,5.832,0.0277008107439868
497,5.840,0.0216197248032982
498,5.847,0.0247679357258502
499,5.855,0.0328860993223078
500,5.862,0.0242640497095183
501,5.870,0.00558150664244511
502,5.878,0.0134628007440458
503,5.885,0.0190055469236962
504,5.893,0.0148194169418624
505,5.900,0.026606904349557
506,5.908,0.00336785354505561
507,5.915,0.0181011361251518
508,5.923,0.0190830678492857
509,5.930,0.0148969378674519
510,5.938,0.0142681570265591
511,5.945,0.0365941835963396
512,5.953,0.0218307539896252
513,5.960,0.0304571103205029
514,5.968,0.0268394671263256
515,5.975,0.0103490435662003
516,5.983,0.00903980126735516
517,5.991,0.00958244774648177
518,5.998,0.0035573491409411
519,6.006,0.0205387385631333
520,6.013,0.0237343233846566
521,6.021,0.025482850928509
522,6.028,0.0263743415727885
523,6.036,0.0273175128341276
524,6.043,0.021124452223143
525,6.051,0.0242382094009885
526,6.058,0.0260082705352824
527,6.066,0.0198625838232692
528,6.073,0.0262623669024925
529,6.081,0.0161544995492373
530,6.089,0.0247420954173203
531,6.096,0.0227308580700812
532,6.104,0.0238247644645111
533,6.111,0.0316629913852287
534,6.119,0.0132560782758071
535,6.126,0.0309653030549231
536,6.134,0.0558710537595991
537,6.141,0.0610778759283615
538,6.149,0.0458493207681101
539,6.156,0.0322443983271501
540,6.164,0.0261159384874901
541,6.171,0.028855011191653
542,6.179,0.0353796890954372
543,6.186,0.0300178250754957
544,6.194,0.0237472435389216
545,6.202,0.0168952550604261
546,6.209,0.00992698519354628
547,6.217,0.0218652077343317
548,6.224,0.0279247600845788
549,6.232,0.0258187749393969
550,6.239,0.030767194022861
551,6.247,0.0125497765093249
552,6.254,0.00712331171805881
553,6.262,0.00437993229580762
554,6.269,0.018609328859572
555,6.277,0.00469001599816568
556,6.284,0.028041041472963
557,6.292,0.0211632126859377
558,6.300,0.0212838007924103
559,6.307,0.0230710887990574
560,6.315,0.0199056510041522
561,6.322,0.0305863118631521
562,6.330,0.016107125650266
563,6.337,0.0208531289835796
564,6.345,0.0234974538897998
565,6.352,0.0111113326678305
566,6.360,0.00962982164545314
567,6.367,0.0235017606078881
568,6.375,0.0266198245038219
569,6.382,0.0115850716575442
570,6.390,0.0341005938232102
571,6.397,0.0234113195280337
572,6.405,0.019298403753701
573,6.413,0.0197549158710615
574,6.420,0.0143629048245019
575,6.428,0.029643140601813
576,6.435,0.0172570193798438
577,6.443,0.0234285464003869
578,6.450,0.0245353729490816
579,6.458,0.0149227781759817
580,6.465,0.0149098580217168
581,6.473,0.0251813806623276
582,6.480,0.0222743459527208
583,6.488,0.0206679401057825
584,6.495,0.0352418741166114
585,6.503,0.0229849544372913
586,6.510,0.0295354726496054
587,6.518,0.0172957798426385
588,6.526,0.0360127766544182
589,6.533,0.0206205662068111
590,6.541,0.0367492254475186
591,6.548,0.0396734870294787
592,6.556,0.0321108900664126
593,6.563,0.0256378927796881
594,6.571,0.0186007154233954
595,6.578,0.034505425323511
596,6.586,0.0160683651874712
597,6.593,0.0245052259224635
598,6.601,0.0323779065878876
599,6.608,0.0149787655111297
600,6.616,0.03092223587404
601,6.624,0.0340618333604154
602,6.631,0.0227308580700812
603,6.639,0.0305776984269755
604,6.646,0.017175191736166
605,6.654,0.0366027970325162
606,6.661,0.0329980739926037
607,6.669,0.0133465193556616
608,6.676,0.0291952419206292
609,6.684,0.0179891614548559
610,6.691,0.0344968118873344
611,6.699,0.0344451312702747
612,6.706,0.0187859043011926
613,6.714,0.0130450490894801
614,6.721,0.0148754042770103
615,6.729,0.00871679741073218
616,6.737,0.0368181329369315
617,6.744,0.0125454697912366
618,6.752,0.0215508173138853
619,6.759,0.0192294962642881
620,6.767,0.0184026063913333
621,6.774,0.0126057638444729
622,6.782,0.0290229731970969
623,6.789,0.0161415793949724
624,6.797,0.022881593203172
625,6.804,0.0166282385389511
626,6.812,0.0218393674258018
627,6.819,0.0191864290834051
628,6.827,0.0226490304264034
629,6.835,0.0245095326405518
630,6.842,0.00733864762247413
631,6.850,0.0167143729007172
632,6.857,0.0186868497851615
633,6.865,0.024160688475399
634,6.872,0.0267490260464711
635,6.880,0.0202458817331284
636,6.887,0.00746354244703501
637,6.895,0.0167186796188055
638,6.902,0.0160597517512946
639,6.910,0.0213139478190284
640,6.917,0.0211029186327014
641,6.925,0.0210512380156417
642,6.932,0.0321797975558255
643,6.940,0.00780807989409952
644,6.948,0.024216675810547
645,6.955,0.0278127854142828
646,6.963,0.0349360971323416
647,6.970,0.0209478767815224
648,6.978,0.0181183629975051
649,6.985,0.0315467099968445
650,6.993,0.0184801273169228
651,7.000,0.0192381097004647
652,7.008,0.0130450490894801
653,7.015,0.0249100574227643
654,7.023,0.0582182151177261
655,7.030,0.141958041626756
656,7.038,0.119128129040644
657,7.046,0.0855917152870016
658,7.053,0.0543206352478088
659,7.061,0.0484505784934471
660,7.068,0.0496004722230249
661,7.076,0.0347681351268977
662,7.083,0.0394624578431517
663,7.091,0.0396045795400658
664,7.098,0.0405520575194932
665,7.106,0.0523610785176294
666,7.113,0.0345097320415993
667,7.121,0.0222528123622792
668,7.128,0.0298929302509348
669,7.136,0.0217101658831526
670,7.143,0.035883575111769
671,7.151,0.0305518581184457
672,7.159,0.0684897377583369
673,7.166,0.105497366291154
674,7.174,0.084415981248894
675,7.181,0.0705698825949889
676,7.189,0.0630374326585409
677,7.196,0.0513705333573189
678,7.204,0.0496521528400846
679,7.211,0.0585756727190555
680,7.219,0.0713407851327957
681,7.226,0.114946305776898
682,7.234,0.193634351968345
683,7.241,0.202200414245986
684,7.249,0.14555845794858
685,7.257,0.108434548027379
686,7.264,0.0703803869991034
687,7.272,0.0790541172289525
688,7.279,0.0547297734661979
689,7.287,0.0671460417147853
690,7.294,0.0470379749604826
691,7.302,0.0458579342042867
692,7.309,0.0460043626192891
693,7.317,0.0348499627705755
