#"+EI TIC Scan TCM-PA.d "
#Point,X(Minutes),Y(Counts)
0,2.095,0.112666586655577
1,2.102,0.111133707925569
2,2.110,0.109021584698508
3,2.117,0.0853326039561975
4,2.125,0.0966631914351496
5,2.132,0.104302861234705
6,2.140,0.0862332585095432
7,2.148,0.0717486141045611
8,2.155,0.0735923069549392
9,2.163,0.0918314446548483
10,2.170,0.093629221782899
11,2.178,0.0808434591040317
12,2.185,0.0829096666087658
13,2.193,0.0610643787168336
14,2.200,0.0676020711805307
15,2.208,0.0853467318707598
16,2.215,0.076188311255759
17,2.223,0.0733874521937861
18,2.230,0.0547809887152576
19,2.238,0.0672170855087084
20,2.246,0.0573134174005471
21,2.253,0.0581681562315653
22,2.261,0.0570026032801768
23,2.268,0.0540110173716131
24,2.276,0.0660903843223662
25,2.283,0.0549823114977702
26,2.291,0.0338928670349202
27,2.298,0.0475192406302434
28,2.306,0.0453400098090111
29,2.313,0.0441356050925763
30,2.321,0.0450574515177654
31,2.328,0.0930393813499236
32,2.336,0.140537430108324
33,2.343,0.0745388772306123
34,2.351,0.0635085079361088
35,2.359,0.0544807705308091
36,2.366,0.0435175088304764
37,2.374,0.0412287866713863
38,2.381,0.0450185997527191
39,2.389,0.0452093265993099
40,2.396,0.218085553140703
41,2.404,0.336572840595941
42,2.411,0.0919268080781438
43,2.419,0.0326708024252826
44,2.426,0.0406212863452081
45,2.434,0.0381594972327301
46,2.441,0.0347087541008921
47,2.449,0.041709135766504
48,2.456,0.0428111131023622
49,2.464,0.0303361645438651
50,2.472,0.0446300821022563
51,2.479,0.0434398053003838
52,2.487,0.0460252136652819
53,2.494,0.0523545193891853
54,2.502,0.0375166771201461
55,2.509,0.0404270275199767
56,2.517,0.0368703250289216
57,2.524,0.0329674886310906
58,2.532,0.0457567832885985
59,2.539,0.043644660061537
60,2.547,0.036916240751249
61,2.554,0.0398654429161259
62,2.562,0.0464066673584635
63,2.570,0.110886469420729
64,2.577,0.210806145162485
65,2.585,0.090697679511225
66,2.592,0.0585107581597007
67,2.600,0.0455766523779293
68,2.607,0.0541063807949085
69,2.615,0.0385197590540683
70,2.622,0.0462865800846841
71,2.630,0.0439978579255941
72,2.637,0.0450468555818437
73,2.645,0.0265887352062192
74,2.652,0.0310425602719793
75,2.660,0.039099003551122
76,2.667,0.0275070496527676
77,2.675,0.0305339553477371
78,2.683,0.0321304096932752
79,2.690,0.0311202638020719
80,2.698,0.0333489423242722
81,2.705,0.0330557880971048
82,2.713,0.0245543155092502
83,2.720,0.0426133222984902
84,2.728,0.0525523101930572
85,2.735,0.0645080578913904
86,2.743,0.0496808115582729
87,2.750,0.046131173024499
88,2.758,0.0266876306081552
89,2.765,0.0436234681896935
90,2.773,0.0698872613609802
91,2.781,0.0460675974089687
92,2.788,0.0496843435369135
93,2.796,0.0692126534406311
94,2.803,0.0475369005234463
95,2.811,0.0597469506839006
96,2.818,0.0305798710700645
97,2.826,0.0243282688762537
98,2.833,0.0414936850694292
99,2.841,0.0369268366871707
100,2.848,0.03828311648515
101,2.856,0.0398619109374853
102,2.863,0.0454530331255094
103,2.871,0.0382089449336981
104,2.878,0.0247591702704033
105,2.886,0.056614085629714
106,2.894,0.0431042673295296
107,2.901,0.0518600423795053
108,2.909,0.0381524332754489
109,2.916,0.044764297290598
110,2.924,0.035351574213476
111,2.931,0.0367749616056262
112,2.939,0.0367996854561102
113,2.946,0.0390424918928728
114,2.954,0.152818119841589
115,2.961,4.86420213202946
116,2.969,30.3814339141013
117,2.976,77.8290919332363
118,2.984,100
119,2.992,3.50313297101355
120,2.999,0.117304074610647
121,3.007,0.0795578188788638
122,3.014,0.0876954976667396
123,3.022,0.0611456142255667
124,3.029,0.0529584877367229
125,3.037,0.0732285131549604
126,3.044,0.0700179445706813
127,3.052,0.0586273134548395
128,3.059,0.0654652241029852
129,3.067,0.0440225817760781
130,3.074,0.0407060538325818
131,3.082,0.0300536062526194
132,3.089,0.0397630155355493
133,3.097,0.0294319780118789
134,3.105,0.0245825713383748
135,3.112,0.0422318686053085
136,3.120,0.0395263729666311
137,3.127,0.0673618966329718
138,3.135,0.0482503602088417
139,3.142,0.0245295916587662
140,3.150,0.0226364511074201
141,3.157,0.0514256090067151
142,3.165,0.0567165130102906
143,3.172,0.0320703660563855
144,3.180,0.0333454103456317
145,3.187,0.029859347427388
146,3.195,0.0303467604797868
147,3.203,0.0312156272253673
148,3.210,0.0232439514335983
149,3.218,0.0221384421190996
150,3.225,0.0219300553793059
151,3.233,0.0271644477246323
152,3.240,0.0172607796164709
153,3.248,0.0252536472800833
154,3.255,0.0392685385258694
155,3.263,0.0487307093039593
156,3.270,0.0256527608664678
157,3.278,0.0207397785774334
158,3.285,0.0255503334858913
159,3.293,0.0254443741266741
160,3.300,0.0246744027830296
161,3.308,0.0211848078861454
162,3.316,0.0403811117976493
163,3.323,0.0217428605113556
164,3.331,0.0160669708359579
165,3.338,0.0184475244397028
166,3.346,0.0165791077388407
167,3.353,0.00905952521306485
168,3.361,0.00706748925978275
169,3.368,0.0207079907696683
170,3.376,0.0228589657617761
171,3.383,0.0224245323889858
172,3.391,0.0106948313236493
173,3.398,0.0119522157196926
174,3.406,0.00205561156881237
175,3.413,0.0118568522963971
176,3.421,0.00662952390835194
177,3.429,0.0206338192182163
178,3.436,0.0134250508128107
179,3.444,0.014979121414662
180,3.451,0.0152051680476585
181,3.459,0.0183874808028131
182,3.466,0.00642113716855824
183,3.474,0.0189455334280233
184,3.481,0.0324129679845209
185,3.489,0.0920186395227986
186,3.496,0.0595632877945909
187,3.504,0.0306399147069542
188,3.511,0.0180484108533183
189,3.519,0.00522379640940464
190,3.527,0.0143115774515941
191,3.534,0.00114082910090446
192,3.542,0.00568295363267888
193,3.549,0.0168122183291184
194,3.557,0.00769971343644498
195,3.564,0.0281322098721487
196,3.572,0.0114612706886532
197,3.579,0.0140007633312238
198,3.587,0.000441497330071386
199,3.594,0.0116837853430092
200,3.602,0.0213649387968145
201,3.609,0.0161305464514882
202,3.617,0.0140678709253947
203,3.624,0.0198144001736038
204,3.632,0.019005577064913
205,3.640,0.00377215318812992
206,3.647,0.0175751257154817
207,3.655,0.0181932219775817
208,3.662,0
209,3.670,0.016667407204855
210,3.677,0.00538626742687091
211,3.685,0.0101261827625173
212,3.692,0.00409709522306246
213,3.700,0.0104299329256064
214,3.707,0.0175751257154817
215,3.715,0.0187795304319165
216,3.722,0.072465605768597
217,3.730,0.663468059716717
218,3.738,1.95449102033282
219,3.745,3.16864399781554
220,3.753,4.61616893199535
221,3.760,6.1232783458416
222,3.768,7.3196442788904
223,3.775,8.86153661838899
224,3.783,1.76132710847999
225,3.790,0.445862855671132
226,3.798,0.32073191639298
227,3.805,0.290999720196652
228,3.813,0.225301385503389
229,3.820,0.188911409569585
230,3.828,0.16840827356107
231,3.835,0.150879063567916
232,3.843,0.144249539659564
233,3.851,0.14119437813547
234,3.858,0.116092605936931
235,3.866,0.114036994368119
236,3.873,0.115573405076767
237,3.881,0.117512461350441
238,3.888,0.111370350494488
239,3.896,0.0810094621001385
240,3.903,0.0699967526988379
241,3.911,0.0658325498816045
242,3.918,0.0904716328782285
243,3.926,0.126141085169356
244,3.933,0.0999020158485533
245,3.941,0.0648365319049635
246,3.949,0.093505602530479
247,3.956,0.113030380455556
248,3.964,0.100650795320354
249,3.971,0.149307333072862
250,3.979,0.0943815332333407
251,3.986,0.0614458324100152
252,3.994,0.0546679653987593
253,4.001,0.0728965071627467
254,4.009,0.0908990022937376
255,4.016,0.0767463638809692
256,4.024,0.0609902071653816
257,4.031,0.0436870438052238
258,4.039,0.0541558284958765
259,4.046,0.0511642425873128
260,4.054,0.0471978305739515
261,4.062,0.0485611743292119
262,4.069,0.0539015260337554
263,4.077,0.0425780025120845
264,4.084,0.0511183268649854
265,4.092,0.0677680741766375
266,4.099,0.0746624964830323
267,4.107,0.0464808389099155
268,4.114,0.0489108402146285
269,4.122,0.038827041195798
270,4.129,0.0376014446075198
271,4.137,0.0589451915324909
272,4.144,0.0537213951230863
273,4.152,0.0402822163957133
274,4.159,0.0382160088909792
275,4.167,0.0402963443102756
276,4.175,0.0436517240188181
277,4.182,0.0396641201336133
278,4.190,0.028245233188647
279,4.197,0.0265110316761266
280,4.205,0.0378945988346872
281,4.212,0.0314381418797233
282,4.220,0.031745424021453
283,4.227,0.0273693024857854
284,4.235,0.0258576156276209
285,4.242,0.0162930174689544
286,4.250,0.0429912440130313
287,4.257,0.0269313371343546
288,4.265,0.0347052221222515
289,4.273,0.0290611202546189
290,4.280,0.0206161593250135
291,4.288,0.0287573700915298
292,4.295,0.0371034356191993
293,4.303,0.0251582838567879
294,4.310,0.0239291552898691
295,4.318,0.0366407464172845
296,4.325,0.0320809619923072
297,4.333,0.0308271095749045
298,4.340,0.0241552019228657
299,4.348,0.0217463924899962
300,4.355,0.0167274508417447
301,4.363,0.0210859124842094
302,4.370,0.0333807301320374
303,4.378,0.0256562928451084
304,4.386,0.0313851622001147
305,4.393,0.0381665611900112
306,4.401,0.0424967670033514
307,4.408,0.0650696424952412
308,4.416,0.174811750836426
309,4.423,0.181310591535076
310,4.431,0.062378274771126
311,4.438,0.0269631249421197
312,4.446,0.025066452412133
313,4.453,0.016271825597111
314,4.461,0.0338893350562796
315,4.468,0.0204430923716255
316,4.476,0.0332783027514608
317,4.484,0.0226470470433418
318,4.491,0.0155936856981214
319,4.499,0.0210823805055688
320,4.506,0.0287679660274515
321,4.514,0.0435563605955227
322,4.521,0.0511995623737185
323,4.529,0.0335326052135819
324,4.536,0.0441285411352952
325,4.544,0.0256315689946244
326,4.551,0.0461205770885773
327,4.559,0.0286761345827967
328,4.566,0.0243318008548942
329,4.574,0.0443510557896512
330,4.581,0.0516022079387436
331,4.589,0.043644660061537
332,4.597,0.0502671200126077
333,4.604,0.0431183952440919
334,4.612,0.0406495421743327
335,4.619,0.0402468966093076
336,4.627,0.0361957171085725
337,4.634,0.050355419478622
338,4.642,0.0390566198074351
339,4.649,0.0369444965803736
340,4.657,0.0226647069365447
341,4.664,0.0317560199573747
342,4.672,0.0406707340461761
343,4.679,0.040614222387927
344,4.687,0.0484834707991193
345,4.695,0.0321480695864781
346,4.702,0.0366831301609713
347,4.710,0.0342955125999453
348,4.717,0.045011535795438
349,4.725,0.0456967396517088
350,4.732,0.0306611065787976
351,4.740,0.0369621564735765
352,4.747,0.0288880533012309
353,4.755,0.0402292367161047
354,4.762,0.0515209724300105
355,4.770,0.0494618288825575
356,4.777,0.047695839562272
357,4.785,0.0423943396227748
358,4.792,0.0329357008233254
359,4.800,0.0334054539825214
360,4.808,0.0415325368344754
361,4.815,0.0636568510390128
362,4.823,0.0484163632049485
363,4.830,0.0683367227377694
364,4.838,0.0840081119659834
365,4.845,0.0969351537904736
366,4.853,0.0459404461779082
367,4.860,0.0440826254129678
368,4.868,0.0504861026883232
369,4.875,0.0452834981507619
370,4.883,0.0650802384311629
371,4.890,0.592210390643195
372,4.898,10.6497314883878
373,4.905,25.006225112354
374,4.913,6.99310225763368
375,4.921,0.980166456502164
376,4.928,0.583715982012622
377,4.936,0.428524372524569
378,4.943,0.334164031163071
379,4.951,0.275660336960652
380,4.958,0.217400349284432
381,4.966,0.194594363202264
382,4.973,0.176567144220789
383,4.981,0.155336420612317
384,4.988,0.155163353658929
385,4.996,0.147891009637993
386,5.003,0.112369900449769
387,5.011,0.129913238357486
388,5.019,0.112942080989542
389,5.026,0.0980088752972072
390,5.034,0.0755031073994882
391,5.041,0.0878297128550813
392,5.049,0.0916089300004924
393,5.056,0.0914959066839941
394,5.064,0.100940417568881
395,5.071,0.0817123258496122
396,5.079,0.0663270268912845
397,5.086,0.0748073076072957
398,5.094,0.0941554866003441
399,5.101,0.072787015824889
400,5.109,0.0770465820654178
401,5.116,0.0740867839646192
402,5.124,0.0625584056817951
403,5.132,0.071024558483244
404,5.139,0.069756578151279
405,5.147,0.0594114127130463
406,5.154,0.0658466777961668
407,5.162,0.0510582832280957
408,5.169,0.0514821206649642
409,5.177,0.0579279816840064
410,5.184,0.0551518464725176
411,5.192,0.0556533874394787
412,5.199,0.0563138674452655
413,5.207,0.0505461463252129
414,5.214,0.0519094900804733
415,5.222,0.0515492282591351
416,5.230,0.0555827478666672
417,5.237,0.135797514772677
418,5.245,0.133989141708705
419,5.252,0.0715472913220486
420,5.260,0.0497903028961307
421,5.267,0.0435175088304764
422,5.275,0.0355211091882235
423,5.282,0.0434327413431027
424,5.290,0.0483068718670908
425,5.297,0.0490697792534541
426,5.305,0.0620886525225992
427,5.312,0.0365418510153485
428,5.320,0.0511819024805157
429,5.327,0.0347158180581732
430,5.335,0.046427859230307
431,5.343,0.0285843031381418
432,5.350,0.0336774163378453
433,5.358,0.0408367370422829
434,5.365,0.0345604109979881
435,5.373,0.0425320867897571
436,5.380,0.0473956213778235
437,5.388,0.0332041312000088
438,5.395,0.0358248593513126
439,5.403,0.0378027673900324
440,5.410,0.0361356734716828
441,5.418,0.0491898665272336
442,5.425,0.0622016758390975
443,5.433,0.0744576417218791
444,5.441,0.0519306819523167
445,5.448,0.0507050853640386
446,5.456,0.0376049765861604
447,5.463,0.0540145493502537
448,5.471,0.0713177127104114
449,5.478,0.0838950886494851
450,5.486,0.0531209587541892
451,5.493,0.0470989351720155
452,5.501,0.0385727387336769
453,5.508,0.0449585561158294
454,5.516,0.0381135815104026
455,5.523,0.0511783705018751
456,5.531,0.0393956897569299
457,5.538,0.0300642021885411
458,5.546,0.0427263456149885
459,5.554,0.0384455875026163
460,5.561,0.0400314459122327
461,5.569,0.0268183138178563
462,5.576,0.0368067494133913
463,5.584,0.0353551061921166
464,5.591,0.0453682656381356
465,5.599,0.0433868256207753
466,5.606,0.0625160219381083
467,5.614,0.461714375810015
468,5.621,1.79896387287392
469,5.629,1.22722483043147
470,5.636,0.476661709416912
471,5.644,0.302747081155192
472,5.652,0.208185417011182
473,5.659,0.159458239685863
474,5.667,0.139989973419035
475,5.674,0.123749935629689
476,5.682,0.096659659456509
477,5.689,0.0832416726009794
478,5.697,0.0751145897490254
479,5.704,0.0810094621001385
480,5.712,0.0693221447784888
481,5.719,0.0695976391124533
482,5.727,0.0891471408880143
483,5.734,0.0773538642071474
484,5.742,0.0567059170743688
485,5.749,0.0522520920086087
486,5.757,0.066528349673797
487,5.765,0.0683508506523317
488,5.772,0.0734474958306758
489,5.780,0.0676691787747015
490,5.787,0.0495642562631341
491,5.795,0.0537673108454137
492,5.802,0.0531986622842818
493,5.810,0.0661363000446937
494,5.817,0.0621522281381295
495,5.825,0.0642608193865504
496,5.832,0.0589663834043343
497,5.840,0.0506697655776329
498,5.847,0.062007417013866
499,5.855,0.0589310636179286
500,5.862,0.0433691657275724
501,5.870,0.0408649928714075
502,5.878,0.0524922665561675
503,5.885,0.0481479328282651
504,5.893,0.0338080995475465
505,5.900,0.0553990849773575
506,5.908,0.034676966293127
507,5.915,0.0438530468013306
508,5.923,0.0418716067839703
509,5.930,0.0368985808580462
510,5.938,0.0350054403067001
511,5.945,0.0336456285300802
512,5.953,0.0399148906170939
513,5.960,0.0385939306055203
514,5.968,0.0567694926898991
515,5.976,0.105577905523951
516,5.983,0.101526726023216
517,5.991,0.0435775524673661
518,5.998,0.0545408141676988
519,6.006,0.0696400228561402
520,6.013,0.10279117437654
521,6.021,0.0902279263520291
522,6.028,0.0710916660774149
523,6.036,0.0577655106665402
524,6.043,0.0415078129839914
525,6.051,0.0357153680134549
526,6.058,0.0451492829624202
527,6.066,0.0447042536537083
528,6.073,0.039872506873407
529,6.081,0.0538662062473497
530,6.089,0.0361074176425583
531,6.096,0.0359979263047005
532,6.104,0.0507227452572414
533,6.111,0.0542723837910154
534,6.119,0.0450539195391248
535,6.126,0.0537425869949297
536,6.134,0.0886138121132881
537,6.141,0.0834323994475703
538,6.149,0.0672135535300678
539,6.156,0.0565045942918563
540,6.164,0.0485364504787279
541,6.171,0.0432561424110741
542,6.179,0.0542229360900474
543,6.187,0.0439590061605478
544,6.194,0.049334677651497
545,6.202,0.0446618699100214
546,6.209,0.053286961750296
547,6.217,0.0636003393807636
548,6.224,0.0615906435342787
549,6.232,0.057906789812163
550,6.239,0.0593054533538292
551,6.247,0.0431607789877787
552,6.254,0.0475898802030549
553,6.262,0.0428570288246896
554,6.269,0.0389224046190934
555,6.277,0.0386822300715346
556,6.284,0.0403811117976493
557,6.292,0.0449762160090323
558,6.300,0.0490026716592833
559,6.307,0.0562962075520626
560,6.315,0.0616330272779655
561,6.322,0.0902385222879508
562,6.330,0.0691102260600545
563,6.337,0.0547597968434142
564,6.345,0.0425885984480062
565,6.352,0.0514891846222453
566,6.360,0.0469753159195955
567,6.367,0.0526688654881961
568,6.375,0.0471342549584212
569,6.382,0.0351537834096041
570,6.390,0.0467422053293178
571,6.398,0.0476887756049909
572,6.405,0.0455201407196802
573,6.413,0.0679835248737123
574,6.420,0.0618166901672752
575,6.428,0.0634449323205785
576,6.435,0.0422177406907462
577,6.443,0.053484752554168
578,6.450,0.0444993988925552
579,6.458,0.0516022079387436
580,6.465,0.0407696294481121
581,6.473,0.047275534104044
582,6.480,0.0431855028382627
583,6.488,0.0358637111163588
584,6.495,0.036068565877512
585,6.503,0.0488719884495822
586,6.511,0.0359060948600457
587,6.518,0.0767004481586418
588,6.526,0.0847992751814713
589,6.533,0.0801971070128072
590,6.541,0.0730413182870101
591,6.548,0.0670369545980393
592,6.556,0.0750933978771819
593,6.563,0.0668462277514484
594,6.571,0.066825035879605
595,6.578,0.0694846157959551
596,6.586,0.0674537280776267
597,6.593,0.0537002032512428
598,6.601,0.065977361005868
599,6.608,0.0477240953913966
600,6.616,0.0441285411352952
601,6.624,0.0472720021254035
602,6.631,0.0366054266308788
603,6.639,0.0559783294744112
604,6.646,0.0705194855376424
605,6.654,0.0689901387862751
606,6.661,0.0583624150567967
607,6.669,0.0468905484322218
608,6.676,0.0455872483138511
609,6.684,0.0388870848326877
610,6.691,0.0422354005839491
611,6.699,0.0542335320259691
612,6.706,0.0258222958412152
613,6.714,0.0412605744791515
614,6.722,0.0327944216777026
615,6.729,0.0317984037010615
616,6.737,0.0368032174347508
617,6.744,0.0287856259206544
618,6.752,0.0327696978272186
619,6.759,0.0273375146780202
620,6.767,0.0330981718407917
621,6.774,0.0269066132838706
622,6.782,0.0342884486426641
623,6.789,0.0294037221827543
624,6.797,0.0333242184737882
625,6.804,0.0380040901725449
626,6.812,0.0341012537747139
627,6.819,0.0316606565340792
628,6.827,0.0241234141151005
629,6.835,0.0221525700336619
630,6.842,0.0289304370449178
631,6.850,0.0252430513441616
632,6.857,0.023699576678232
633,6.865,0.0374531015046158
634,6.872,0.0471731067234675
635,6.880,0.028443023992519
636,6.887,0.023427614322908
637,6.895,0.0388482330676414
638,6.902,0.0358354552872343
639,6.910,0.0486353458806639
640,6.917,0.108813197958714
641,6.925,0.0791127895701518
642,6.933,0.0488013488767707
643,6.940,0.0408967806791726
644,6.948,0.0331582154776814
645,6.955,0.0407696294481121
646,6.963,0.0584719063946544
647,6.970,0.0493876573311055
648,6.978,0.0392932623763534
649,6.985,0.0364076358270068
650,6.993,0.0399749342539836
651,7.000,0.0280368464488533
652,7.008,0.0381065175531215
653,7.015,0.0387669975589083
654,7.023,0.0797202898963301
655,7.030,0.153651666800764
656,7.038,0.16061672867997
657,7.046,0.0726987163588747
658,7.053,0.0484516829913542
659,7.061,0.0585178221169818
660,7.068,0.0503907392650277
661,7.076,0.0461241090672179
662,7.083,0.0418150951257211
663,7.091,0.0431572470091381
664,7.098,0.0465797343118515
665,7.106,0.0435775524673661
666,7.113,0.0422989761994794
667,7.121,0.0320950899068695
668,7.128,0.0414018536247743
669,7.136,0.0597010349615731
670,7.144,0.0785865247527067
671,7.151,0.0912098164141078
672,7.159,0.105906379537524
673,7.166,0.122404251767632
674,7.174,0.10724146746366
675,7.181,0.0849617461989376
676,7.189,0.054703285185165
677,7.196,0.0500022216145649
678,7.204,0.0730907659879781
679,7.211,0.0869078664298922
680,7.219,0.0913299036878872
681,7.226,0.152712160482372
682,7.234,0.261461782825556
683,7.241,0.203554993013393
684,7.249,0.114888201220496
685,7.257,0.0833405680029154
686,7.264,0.079317644331305
687,7.272,0.0573310772937499
688,7.279,0.0676338589882958
689,7.287,0.058425990672327
690,7.294,0.0530361912668155
691,7.302,0.0508675563815048
692,7.309,0.0386504422637694
693,7.317,0.0473179178477309
694,7.324,0.041783307317956
695,7.332,0.0380500058948723
696,7.339,0.0399925941471864
