#"+EI TIC Scan TCM-PEEK-1Week.d "
#Point,X(Minutes),Y(Counts)
0,2.095,0.145239552089591
1,2.102,0.131935131362408
2,2.110,0.128598923262409
3,2.117,0.1283609434114
4,2.125,0.11850049524505
5,2.132,0.113857643057434
6,2.140,0.106399444330518
7,2.147,0.112793469006694
8,2.155,0.114427896662683
9,2.163,0.107418716522577
10,2.170,0.156007017801297
11,2.178,0.167775794961589
12,2.185,0.1079081467822
13,2.193,0.100732829764975
14,2.200,0.141261247410454
15,2.208,0.150237128960787
16,2.215,0.0906388919334844
17,2.223,0.0967455447141016
18,2.230,0.136829433958638
19,2.238,0.11412705420952
20,2.245,0.0796603874859777
21,2.253,0.116695440526074
22,2.261,0.128392374712477
23,2.268,0.0875810753573077
24,2.276,0.073796204742238
25,2.283,0.0967051330412887
26,2.291,0.0822197934307952
27,2.298,0.0853539431667296
28,2.306,0.0865483326076445
29,2.313,0.144211299525796
30,2.321,0.114203387369278
31,2.328,0.0769483152216448
32,2.336,0.0688390395438546
33,2.343,0.066230241554488
34,2.351,0.0787892914275661
35,2.358,0.0550362081853125
36,2.366,0.0671462394715805
37,2.374,0.0773838632508506
38,2.381,0.0755294164873249
39,2.389,0.0885554456906855
40,2.396,0.318866059237316
41,2.404,0.364050799628015
42,2.411,0.104625820912619
43,2.419,0.0849677871820729
44,2.426,0.0970598577248686
45,2.434,0.0799208182663276
46,2.441,0.0700199584271651
47,2.449,0.0624629756111513
48,2.456,0.0535768977781797
49,2.464,0.18340164178258
50,2.472,0.377813219313744
51,2.479,0.20832217335054
52,2.487,0.162315728945979
53,2.494,0.11821761353536
54,2.502,0.0950707053852999
55,2.509,0.0696203318849041
56,2.517,0.0777430781202986
57,2.524,0.069126411439413
58,2.532,0.0783627237700966
59,2.539,0.0744383013213764
60,2.547,0.0734324996869218
61,2.554,0.0776128627301237
62,2.562,0.068767196569965
63,2.569,0.0871185862128933
64,2.577,0.0728936773827497
65,2.585,0.0782774102386026
66,2.592,0.0751971427330854
67,2.600,0.0702220167912297
68,2.607,0.0780124892723847
69,2.615,0.0664143391750801
70,2.622,0.0584038475863881
71,2.630,0.0763645910587917
72,2.637,0.0752734758928432
73,2.645,0.0611338805941935
74,2.652,0.0523825083372649
75,2.660,0.0633071305543543
76,2.667,0.0616996440135742
77,2.675,0.0744338111355083
78,2.683,0.064182716798634
79,2.690,0.0779406462984951
80,2.698,0.061825369217881
81,2.705,0.070949426901862
82,2.713,0.0640300504791185
83,2.720,0.116924440005347
84,2.728,0.130615016717186
85,2.735,0.0878325257659213
86,2.743,0.0794179174491003
87,2.750,0.077316510462829
88,2.758,0.0800959355151835
89,2.765,0.0762164149251443
90,2.773,0.0875137225692861
91,2.780,0.0698942332228583
92,2.788,0.066589456423936
93,2.796,0.0648023624484319
94,2.803,0.0904682648704965
95,2.811,0.0709808582029387
96,2.818,0.0795346622816709
97,2.826,0.215573823527523
98,2.833,0.204905141904916
99,2.841,0.0812633838408897
100,2.848,0.0714253866038807
101,2.856,0.0610440768768315
102,2.863,0.0625078774698323
103,2.871,0.0525082335415717
104,2.878,0.0779720775995718
105,2.886,0.0860993140208344
106,2.893,0.0717441898005159
107,2.901,0.0820222252525988
108,2.909,0.0740835766377964
109,2.916,0.0689108825177442
110,2.924,0.0790991142524651
111,2.931,0.0734594408021304
112,2.939,0.0635091889184188
113,2.946,0.0740162238497749
114,2.954,0.322601893879576
115,2.961,7.30877881178277
116,2.969,36.7564459873521
117,2.976,76.3927579947423
118,2.984,100
119,2.991,3.68236999912845
120,2.999,0.150241619146655
121,3.007,0.123058033901173
122,3.014,0.098855932072109
123,3.022,0.088977523162287
124,3.029,0.0861621766229878
125,3.037,0.102726472290412
126,3.044,0.100544241958515
127,3.052,0.0747705750756159
128,3.059,0.080518012986785
129,3.067,0.0956589197340211
130,3.074,0.0725254821415654
131,3.082,0.0705902120324139
132,3.089,0.0781561752201639
133,3.097,0.0622115252025377
134,3.104,0.0659159285437209
135,3.112,0.0635900122640447
136,3.120,0.0679185514408939
137,3.127,0.106251268196871
138,3.135,0.0949180390657845
139,3.142,0.0693149992458733
140,3.150,0.0744921835517936
141,3.157,0.0739982631063025
142,3.165,0.0852237277765547
143,3.172,0.0585250826048269
144,3.180,0.0775724510573108
145,3.187,0.0607387442378006
146,3.195,0.0694676655653887
147,3.202,0.0679769238571792
148,3.210,0.0638010509998454
149,3.218,0.0588798072884068
150,3.225,0.0616367814114208
151,3.233,0.0593557669904255
152,3.240,0.0610395866909634
153,3.248,0.0689333334470847
154,3.255,0.0798848967793827
155,3.263,0.0984428349722437
156,3.270,0.0728981675686178
157,3.278,0.045669680464454
158,3.285,0.0577393000779092
159,3.293,0.064227618657315
160,3.300,0.054169602312769
161,3.308,0.0703208008803279
162,3.315,0.0678018066083233
163,3.323,0.0412064357115618
164,3.331,0.0478653813539554
165,3.338,0.0446548984582633
166,3.346,0.0509770801605493
167,3.353,0.0457819351111566
168,3.361,0.0384539517744159
169,3.368,0.0489430259622996
170,3.376,0.0468461091618965
171,3.383,0.0438107435150603
172,3.391,0.0454810926579938
173,3.398,0.0536936426107503
174,3.406,0.0323966910383478
175,3.413,0.0469763245520714
176,3.421,0.0342017457573244
177,3.429,0.034138883155171
178,3.436,0.0447851138484382
179,3.444,0.0597015113022693
180,3.451,0.259833585629394
181,3.459,0.606942913977064
182,3.466,0.297569107664913
183,3.474,0.0655118118155918
184,3.481,0.0647305194745423
185,3.489,0.107845284180047
186,3.496,0.0742093018421032
187,3.504,0.0419428261939303
188,3.511,0.0426118638882773
189,3.519,0.0416150426255589
190,3.526,0.0411166319941998
191,3.534,0.041929355636326
192,3.542,0.0536711916814098
193,3.549,0.065830615012227
194,3.557,0.144211299525796
195,3.564,0.0931444156478846
196,3.572,0.049140594140496
197,3.579,0.0372820132628416
198,3.587,0.0491450843263641
199,3.594,0.0444303891648582
200,3.602,0.0364243877620343
201,3.609,0.0322036130460195
202,3.617,0.0409594754888162
203,3.624,0.0447267414321529
204,3.632,0.0339413149769746
205,3.640,0.0383102658266367
206,3.647,0.0399536738543616
207,3.655,0.0382249522951428
208,3.662,0.028930267548174
209,3.670,0.0443989578637815
210,3.677,0.0437209397976983
211,3.685,0.0365276620370007
212,3.692,0.0470346969683567
213,3.700,0.0466665017271724
214,3.707,0.069615841699036
215,3.715,0.0555211482590674
216,3.722,0.0357149383948744
217,3.730,0.0415072781647245
218,3.737,0.0326885531197744
219,3.745,0.0432539604674158
220,3.753,0.046823658232556
221,3.760,0.0449287997962174
222,3.768,0.0407214956378069
223,3.775,0.0360876238219268
224,3.783,0.044821035335383
225,3.790,0.0425849227730687
226,3.798,0.0434111169727993
227,3.805,0.0385392653059098
228,3.813,0.0474702449975625
229,3.820,0.0269096839075286
230,3.828,0.0372056801030839
231,3.835,0.0381171878343084
232,3.843,0.0384539517744159
233,3.850,0.0456786608361903
234,3.858,0.0397246743750885
235,3.866,0.0381351485777808
236,3.873,0.0392711656024103
237,3.881,0.0360023102904329
238,3.888,0.0254009814558467
239,3.896,0.0376412281322897
240,3.903,0.0463072868577244
241,3.911,0.0397785566055057
242,3.918,0.0368778965347125
243,3.926,0.0465228157793932
244,3.933,0.027461976769305
245,3.941,0.0442507817301342
246,3.948,0.0491585548839684
247,3.956,0.0484580858885447
248,3.964,0.0550900904157297
249,3.971,0.0981554630766852
250,3.979,0.0510130016474941
251,3.986,0.0310406549061814
252,3.994,0.0414803370495159
253,4.001,0.0323113775068539
254,4.009,0.0402320653781839
255,4.016,0.0294870505958185
256,4.024,0.0307757339399634
257,4.031,0.028530641005913
258,4.039,0.0313235366158717
259,4.046,0.0461007383077917
260,4.054,0.0416779052277124
261,4.061,0.0324191419676884
262,4.069,0.0370709745270409
263,4.077,0.0319027705928568
264,4.084,0.0446055064137141
265,4.092,0.0823814401220468
266,4.099,0.116381127515307
267,4.107,0.0607701755388773
268,4.114,0.0310810665789943
269,4.122,0.0386919316254253
270,4.129,0.0310047334192366
271,4.137,0.0503574345107514
272,4.144,0.0350908025592084
273,4.152,0.0287461699275818
274,4.159,0.0398010075348462
275,4.167,0.0303671270259663
276,4.175,0.0290335418231403
277,4.182,0.0363480546022766
278,4.190,0.0334069828586705
279,4.197,0.0249384923114323
280,4.205,0.0328277488816855
281,4.212,0.0331241011489802
282,4.220,0.0303446760966257
283,4.227,0.027286859520449
284,4.235,0.0338155897726677
285,4.242,0.0471649123585316
286,4.250,0.320909093807302
287,4.257,1.14109093466048
288,4.265,0.756582848217394
289,4.272,0.128670766236299
290,4.280,0.0467652858162707
291,4.288,0.04887118298841
292,4.295,0.0364872503641877
293,4.303,0.0392666754165422
294,4.310,0.0436490968238087
295,4.318,0.0390017544503242
296,4.325,0.0343274709616312
297,4.333,0.032760396093664
298,4.340,0.0496255342142509
299,4.348,0.0183783307581369
300,4.355,0.035472468357997
301,4.363,0.0523690377796606
302,4.370,0.0346866858310793
303,4.378,0.0258679607861292
304,4.386,0.0384629321461521
305,4.393,0.0354859389156012
306,4.401,0.0302054803347146
307,4.408,0.0401153205456133
308,4.416,0.127103691368332
309,4.423,0.138917370387305
310,4.431,0.0573890655801973
311,4.438,0.0454047594982361
312,4.446,0.0349560969831653
313,4.453,0.0481078513908328
314,4.461,0.0200890915738833
315,4.468,0.0286114643515388
316,4.476,0.0291368160981066
317,4.483,0.0239596317921863
318,4.491,0.0273991141671516
319,4.499,0.0403757513259631
320,4.506,0.0284722685896277
321,4.514,0.0255805888905707
322,4.521,0.029464599666478
323,4.529,0.0321048289569213
324,4.536,0.0250013549135857
325,4.544,0.0284049158016062
326,4.551,0.0358451537850493
327,4.559,0.0317141827863965
328,4.566,0.044865937194064
329,4.574,0.0303446760966257
330,4.581,0.0279873285158728
331,4.589,0.028575542864594
332,4.596,0.0209781483757673
333,4.604,0.0217863818320255
334,4.612,0.0264247438337737
335,4.619,0.029689108959883
336,4.627,0.0275787216018756
337,4.634,0.026438214391378
338,4.642,0.0280007990734771
339,4.649,0.0299854612271777
340,4.657,0.0202282873357945
341,4.664,0.0358137224839726
342,4.672,0.0217729112744212
343,4.679,0.0296397169153339
344,4.687,0.0318219472472309
345,4.694,0.022388066738351
346,4.702,0.0368509554195039
347,4.710,0.0283016415266398
348,4.717,0.0263663714174884
349,4.725,0.0258050981839758
350,4.732,0.0280726420473667
351,4.740,0.0321676915590747
352,4.747,0.0137893608009378
353,4.755,0.0252303543928588
354,4.762,0.0253650599689019
355,4.770,0.0261059406371385
356,4.777,0.0309239100736108
357,4.785,0.0240269845802078
358,4.792,0.0379779920723972
359,4.800,0.0236722598966278
360,4.807,0.0251764721624416
361,4.815,0.028086112604971
362,4.823,0.039657321587067
363,4.830,0.0313235366158717
364,4.838,0.0638639136019988
365,4.845,0.0692027445991708
366,4.853,0.0516506080407644
367,4.860,0.03338453192933
368,4.868,0.023411829116278
369,4.875,0.03409398129649
370,4.883,0.0260116467339084
371,4.890,0.0232905940978393
372,4.898,0.0280906027908391
373,4.905,0.0243682387061835
374,4.913,0.022742791421931
375,4.921,0.0125231283861334
376,4.928,0.0311259684376753
377,4.936,0.0230436338750937
378,4.943,0.0249340021255642
379,4.951,0.0151588674907086
380,4.958,0.0242335331301404
381,4.966,0.0100759770880184
382,4.973,0.0201833854771135
383,4.981,0.0175656071160106
384,4.988,0.0296127758001253
385,4.996,0.0341703144562477
386,5.003,0.0313908894038933
387,5.011,0.0327379451643235
388,5.018,0.0315839673962216
389,5.026,0.0338200799585358
390,5.034,0.0388445979449407
391,5.041,0.0351267240461532
392,5.049,0.0245209050256989
393,5.056,0.0409100834442671
394,5.064,0.0260161369197765
395,5.071,0.0186567222819592
396,5.079,0.0353826646406349
397,5.086,0.0260116467339084
398,5.094,0.031557026281013
399,5.101,0.0301695588477698
400,5.109,0.0220962046569244
401,5.116,0.034049079437809
402,5.124,0.0289437381057783
403,5.132,0.0247813358060488
404,5.139,0.0332094146804741
405,5.147,0.017538666000802
406,5.154,0.0219255775939366
407,5.162,0.0224913410133173
408,5.169,0.0167304325445439
409,5.177,0.0270533698553078
410,5.184,0.0317456140874732
411,5.192,0.0262271756555772
412,5.199,0.0182077036951491
413,5.207,0.0241122981117017
414,5.214,0.0219031266645961
415,5.222,0.0307083811519419
416,5.229,0.0270848011563845
417,5.237,0.0315525360951449
418,5.245,0.0362492705131784
419,5.252,0.0258993920872059
420,5.260,0.0238922790041648
421,5.267,0.0236049071086063
422,5.275,0.0260610387784575
423,5.282,0.0293613253915117
424,5.290,0.0288898558753611
425,5.297,0.0329489839001243
426,5.305,0.029334384276303
427,5.312,0.0295005211534228
428,5.320,0.0327873372088726
429,5.327,0.0174174309823633
430,5.335,0.0249070610103556
431,5.342,0.0294690898523461
432,5.350,0.0266268021978382
433,5.358,0.0152711221374111
434,5.365,0.0276146430888204
435,5.373,0.0319970644960869
436,5.380,0.0249070610103556
437,5.388,0.0346956662028155
438,5.395,0.0227472816077991
439,5.403,0.0271027618998569
440,5.410,0.0240539256954164
441,5.418,0.0255536477753621
442,5.425,0.0319117509645929
443,5.433,0.0315749870244854
444,5.440,0.0301471079184293
445,5.448,0.0344217648648613
446,5.456,0.0302503821933956
447,5.463,0.0204572868150676
448,5.471,0.022967300715336
449,5.478,0.0373583464225993
450,5.486,0.0326526316328296
451,5.493,0.0246556106017419
452,5.501,0.0617400556863871
453,5.508,0.0454631319145214
454,5.516,0.0401377714749538
455,5.523,0.0304165190705154
456,5.531,0.0356161543057762
457,5.538,0.0260206271056446
458,5.546,0.0265908807108934
459,5.553,0.0313010856865312
460,5.561,0.020565051275902
461,5.569,0.0278750738691703
462,5.576,0.0313908894038933
463,5.584,0.0212879712006663
464,5.591,0.0339727462780513
465,5.599,0.0178978808702501
466,5.606,0.019985817298917
467,5.614,0.0281579555788606
468,5.621,0.0225811447306793
469,5.629,0.0169998436966299
470,5.636,0.0250238058429262
471,5.644,0.0251001390026839
472,5.651,0.0136591454107629
473,5.659,0.0385347751200417
474,5.667,0.0153429651113007
475,5.674,0.0199543859978403
476,5.682,0.0238024752868028
477,5.689,0.0268917231640562
478,5.697,0.0232456922391583
479,5.704,0.0280097794452133
480,5.712,0.0241796508997232
481,5.719,0.0237351224987812
482,5.727,0.0184816050331032
483,5.734,0.0261912541686324
484,5.742,0.0304479503715921
485,5.749,0.0220108911254305
486,5.757,0.0182301546244896
487,5.764,0.0295678739414443
488,5.772,0.020160934547773
489,5.780,0.01860733023741
490,5.787,0.0235644954357934
491,5.795,0.0258095883698439
492,5.802,0.0178799201267777
493,5.810,0.0177362341789985
494,5.817,0.0190787997535606
495,5.825,0.0163442765598872
496,5.832,0.0152172399069939
497,5.840,0.0166540993847862
498,5.847,0.0219345579656728
499,5.855,0.0225407330578664
500,5.862,0.0127027358208574
501,5.870,0.0180460570038974
502,5.878,0.0197657981913801
503,5.885,0.0222309102329675
504,5.893,0.0165777662250284
505,5.900,0.0250103352853219
506,5.908,0.0129227549283943
507,5.915,0.0247229633897634
508,5.923,0.0201339934325643
509,5.930,0.0179068612419863
510,5.938,0.0194335244371406
511,5.945,0.0230436338750937
512,5.953,0.00741329686823455
513,5.960,0.0142069480866712
514,5.968,0.0238383967737476
515,5.975,0.0301246569890888
516,5.983,0.0283600139429252
517,5.991,0.0217953622037617
518,5.998,0.0159221990882857
519,6.006,0.0192763679317571
520,6.013,0.0145347316550425
521,6.021,0.0241167882975698
522,6.028,0.0173186468932651
523,6.036,0.0215124804940713
524,6.043,0.0127790689806151
525,6.051,0.0203270714248927
526,6.058,0.0151498871189724
527,6.066,0.018072998119106
528,6.073,0.0145033003539658
529,6.081,0.0189396039916495
530,6.089,0.0333171791413085
531,6.096,0.01175081641682
532,6.104,0.0195502692697112
533,6.111,0.0109560535181661
534,6.119,0.023102006291379
535,6.126,0.0160389439208563
536,6.134,0.0125231283861334
537,6.141,0.0140857130682325
538,6.149,0.0252617856939355
539,6.156,0.0140857130682325
540,6.164,0.0107315442247611
541,6.171,0.0107899166410464
542,6.179,0.0120381883123785
543,6.186,0.0200846013880152
544,6.194,0.0169190203510041
545,6.202,0.0138926350759041
546,6.209,0
547,6.217,0.00025594059448175
548,6.224,0.0141351051127816
549,6.232,0.0204932083020124
550,6.239,0.0260745093360618
551,6.247,0.0259847056186998
552,6.254,0.0111850529974393
553,6.262,0.0170133142542342
554,6.269,0.0109470731464299
555,6.277,0.00850441203418307
556,6.284,0.0166540993847862
557,6.292,0.00827990274077802
558,6.299,0.00889505820470784
559,6.307,0.0262900382577307
560,6.315,0.0175656071160106
561,6.322,0.0103453882401044
562,6.330,0.0114230328484486
563,6.337,0.0149972207994569
564,6.345,0.012464755969848
565,6.352,0.00467428348869302
566,6.360,0.0168786086781912
567,6.367,0.00640300504791185
568,6.375,0.0153160239960921
569,6.382,0.00338110995867996
570,6.390,0.0167573736597525
571,6.397,0.00889056801883974
572,6.405,0.0139599878639256
573,6.413,0.0188183689732108
574,6.420,0.00977064444898751
575,6.428,0.00689692549340295
576,6.435,0.00693284698034776
577,6.443,0.0218133229472341
578,6.450,0.112110960754743
579,6.458,0.248765277464525
580,6.465,0.208452388740715
581,6.473,0.142509519081786
582,6.480,0.0970239362379238
583,6.488,0.0658216346404908
584,6.495,0.0491630450698365
585,6.503,0.035162645533098
586,6.510,0.029334384276303
587,6.518,0.0342825691029502
588,6.526,0.028575542864594
589,6.533,0.0256659024220646
590,6.541,0.029244580558941
591,6.548,0.0264606653207185
592,6.556,0.0296621678446744
593,6.563,0.0282118378092778
594,6.571,0.0261104308230066
595,6.578,0.0230975161055109
596,6.586,0.0163577471174915
597,6.593,0.0243323172192387
598,6.601,0.0312606740137183
599,6.608,0.00595847664696987
600,6.616,0.0218447542483108
601,6.624,0.0147367900191071
602,6.631,0.0191596230991865
603,6.639,0.019896013581555
604,6.646,0.00899833247967416
605,6.654,0.0173500781943418
606,6.661,0.011975325710225
607,6.669,0.00516371374831601
608,6.676,0.0182885270407749
609,6.684,0.00517718430592031
610,6.691,0.0109156418453532
611,6.699,0.00676671010322803
612,6.706,0.0136546552248948
613,6.714,0.00875137225692861
614,6.721,0.0161467083816908
615,6.729,0.0112209744843841
616,6.737,0.00690590586513915
617,6.744,0.0127162063784617
618,6.752,0.0119124631080716
619,6.759,0.0103004863814234
620,6.767,0.00973472296204271
621,6.774,0.00987391872395384
622,6.782,0.00975717389138321
623,6.789,0.00647484802180147
624,6.797,0.0117687771602924
625,6.804,0.0150780441450828
626,6.812,0.0150555932157422
627,6.819,0.00360561925208501
628,6.827,0.0104531527009388
629,6.835,0.00995923225544775
630,6.842,0.0121414625873448
631,6.850,0.00309373806312151
632,6.857,0.00827990274077802
633,6.865,0.0119214434798078
634,6.872,0.0132909501695786
635,6.880,0.0172647646628479
636,6.887,0.0136905767118396
637,6.895,0.0132774796119743
638,6.902,0.0243547681485792
639,6.910,0.0158772972296047
640,6.917,0.0182436251820939
641,6.925,0.0122357564905749
642,6.932,0.0132146170098209
643,6.940,0.0154507295721351
644,6.948,0.0160299635491201
645,6.955,0.0136905767118396
646,6.963,0.00746268891278366
647,6.970,0.00695529790968826
648,6.978,0.0122447368623111
649,6.985,0.0133178912847872
650,6.993,0.0158638266720004
651,7.000,0.0137399687563887
652,7.008,0.0272464478476361
653,7.015,0.0196804846598862
654,7.023,0.017713783249658
655,7.030,0.0336270019662075
656,7.038,0.0258724509719973
657,7.045,0.0180056453310845
658,7.053,0.0123659718807498
659,7.061,0.0172378235476393
660,7.068,0.0207222077812856
661,7.076,0.0281444850212563
662,7.083,0.0275562706725351
663,7.091,0.0127117161925936
664,7.098,0.0158952579730771
665,7.106,0.0159401598317581
666,7.113,0.0180370766321612
667,7.121,0.015446239386267
668,7.128,0.0221994789318908
669,7.136,0.0120336981265104
670,7.143,0.0192090151437356
671,7.151,0.0188902119471004
672,7.159,0.0155989057057825
673,7.166,0.025773666882899
674,7.174,0.0220423224265072
675,7.181,0.0129721469729434
676,7.189,0.0135873024368733
677,7.196,0.0237171617553088
678,7.204,0.00847298073310636
679,7.211,0.0275203491855903
680,7.219,0.0124153639252989
681,7.226,0.0258050981839758
682,7.234,0.028440837288551
683,7.241,0.0275742314160075
684,7.249,0.0255626281470983
685,7.256,0.0186881535830359
686,7.264,0.034363392448576
687,7.272,0.0240269845802078
688,7.279,0.0158054542557151
689,7.287,0.0155719645905739
690,7.294,0.0202462480792669
691,7.302,0.0199678565554446
692,7.309,0.0174129407964952
693,7.317,0.00911058712637669
694,7.324,0.0168786086781912
695,7.332,0.00171525100161454
