#"+EI TIC Scan TCM-Blank.d "
#Point,X(Minutes),Y(Counts)
0,2.095,0.15107835359209
1,2.102,0.144247838506594
2,2.110,0.1258516327532
3,2.117,0.115593706183522
4,2.125,0.121116457170799
5,2.132,0.114966562805565
6,2.140,0.115360350508003
7,2.147,0.0947180963777414
8,2.155,0.104655158893581
9,2.162,0.0884612473278952
10,2.170,0.0893071616516506
11,2.177,0.0956126264672299
12,2.185,0.0779213493169655
13,2.193,0.0789568651270799
14,2.200,0.0817036558909984
15,2.208,0.0884515241747486
16,2.215,0.0832836682773232
17,2.223,0.0720631495461305
18,2.230,0.08326422197103
19,2.238,0.0785971084606552
20,2.245,0.0684364134224434
21,2.253,0.0763753679666539
22,2.260,0.0767205399033587
23,2.268,0.0625101515795821
24,2.275,0.0678919168462331
25,2.283,0.0622719343274901
26,2.291,0.0711929273395085
27,2.298,0.0600210243740489
28,2.306,0.0516445279382409
29,2.313,0.0733271594551903
30,2.321,0.0509395993351113
31,2.328,0.093794396828813
32,2.336,0.174622968936616
33,2.343,0.112423958257726
34,2.351,0.0933276854777756
35,2.358,0.079812502603982
36,2.366,0.0668515394595453
37,2.373,0.0802208750361397
38,2.381,0.0634678821645236
39,2.388,0.0674057591889023
40,2.396,0.217224964448506
41,2.404,0.360451871874705
42,2.411,0.105758736775722
43,2.419,0.0690343873409602
44,2.426,0.0781741512987775
45,2.434,0.0616010367603737
46,2.441,0.0527821368563947
47,2.449,0.0548142758640371
48,2.456,0.073084080626525
49,2.464,0.0769198645428643
50,2.471,0.048528257354751
51,2.479,0.0642700422991193
52,2.486,0.0556115744220594
53,2.494,0.0472399395628247
54,2.501,0.067400897612329
55,2.509,0.0555289276203132
56,2.517,0.0584604582940174
57,2.524,0.0466857198334677
58,2.532,0.0472496627159713
59,2.539,0.062665722029928
60,2.547,0.0648874625239293
61,2.554,0.0494859879396925
62,2.562,0.0582854415373783
63,2.569,0.121286612350864
64,2.577,0.221945555301187
65,2.584,0.0971099920518085
66,2.592,0.0594813893744118
67,2.599,0.0646638300015572
68,2.607,0.0674446518014888
69,2.615,0.0687572774762817
70,2.622,0.0631129870746722
71,2.630,0.0616253446432403
72,2.637,0.0546635669902645
73,2.645,0.0423491935300778
74,2.652,0.0577360833845946
75,2.660,0.0507937520379121
76,2.667,0.0567005675744802
77,2.675,0.0409296131706721
78,2.682,0.0551643093773152
79,2.690,0.042495040827277
80,2.697,0.0443618862314269
81,2.705,0.0519896998749457
82,2.712,0.0358638503812862
83,2.720,0.0553052950979411
84,2.728,0.0634824668942435
85,2.735,0.0752960979673797
86,2.743,0.0705123066192456
87,2.750,0.0547073211794243
88,2.758,0.0615232515352008
89,2.765,0.0609738933824171
90,2.773,0.075364160039406
91,2.780,0.0526168432529023
92,2.788,0.0703227051328866
93,2.795,0.0734146678335099
94,2.803,0.0646346605421173
95,2.810,0.0855831939964974
96,2.818,0.0487567514536965
97,2.826,0.041814420107014
98,2.833,0.0621795643725973
99,2.841,0.0662632886941752
100,2.848,0.0640561329298938
101,2.856,0.0616156214900936
102,2.863,0.0700650415745013
103,2.871,0.0649117704067958
104,2.878,0.0511632318574835
105,2.886,0.0735702382838557
106,2.893,0.0675516064861016
107,2.901,0.0654805748658727
108,2.908,0.058406980951711
109,2.916,0.0586938139695361
110,2.923,0.0511340623980436
111,2.931,0.0588250765370154
112,2.939,0.0653395891452468
113,2.946,0.0483969947872718
114,2.954,0.173004063937705
115,2.961,5.21104128212609
116,2.969,36.024160868791
117,2.976,92.2431601142257
118,2.984,100
119,2.991,2.08218893846455
120,2.999,0.155935068588824
121,3.006,0.127183704734286
122,3.014,0.105345502766991
123,3.021,0.0913295775061464
124,3.029,0.0605314899142462
125,3.037,0.0912031765152404
126,3.044,0.107377641774633
127,3.052,0.0688107548185881
128,3.059,0.0676634227472876
129,3.067,0.0821995367014757
130,3.074,0.0570408779346117
131,3.082,0.0561366246919766
132,3.089,0.0656410068927919
133,3.097,0.0557331138363921
134,3.104,0.0570894937003448
135,3.112,0.0556261591517793
136,3.119,0.0600015780677557
137,3.127,0.107815183666231
138,3.134,0.0660007635592166
139,3.142,0.0573763267181699
140,3.150,0.0540510083420279
141,3.157,0.0635651136959898
142,3.165,0.0706678770695914
143,3.172,0.0599675470317425
144,3.180,0.0495005726694125
145,3.187,0.0487518898771232
146,3.195,0.046816982400947
147,3.202,0.0416102338909351
148,3.210,0.0427721506919555
149,3.217,0.0372153686686655
150,3.225,0.0309925506548325
151,3.232,0.0335448783558187
152,3.240,0.02281537885853
153,3.247,0.0386689800640843
154,3.255,0.0363743159214834
155,3.263,0.0625490441921686
156,3.270,0.0349304276792112
157,3.278,0.0388148273612835
158,3.285,0.0345609478596399
159,3.293,0.0315613551139094
160,3.300,0.0427381196559423
161,3.308,0.0403851165944617
162,3.315,0.0593792962663724
163,3.323,0.0521598550550114
164,3.330,0.0324753315096911
165,3.338,0.0457766050142592
166,3.345,0.0315127393481763
167,3.353,0.0395100328112665
168,3.361,0.0211186886344459
169,3.368,0.0218673714267351
170,3.376,0.0304237461957556
171,3.383,0.0223438059309192
172,3.391,0.0295924166017201
173,3.398,0.0215999847152033
174,3.406,0.0362284686242842
175,3.413,0.0379689130375281
176,3.421,0.0312599373663644
177,3.428,0.0349839050215176
178,3.436,0.0291597362866957
179,3.443,0.0333066611037266
180,3.451,0.0321690521855728
181,3.458,0.0304431925020488
182,3.466,0.035465201102275
183,3.474,0.0258101100276872
184,3.481,0.034910981372918
185,3.489,0.0922192460190616
186,3.496,0.076282998011761
187,3.504,0.029655617097173
188,3.511,0.0339824202474163
189,3.519,0.031950281239774
190,3.526,0.0168064702139225
191,3.534,0.0136610301709928
192,3.541,0.0230438729574754
193,3.549,0.0184059289065405
194,3.556,0.0243078828665353
195,3.564,0.0218673714267351
196,3.572,0.0264323918290705
197,3.579,0.0251392124605708
198,3.587,0.0263011292615912
199,3.594,0.0212839822379383
200,3.602,0.0209874260669666
201,3.609,0.0270060578647207
202,3.617,0.0270789815133203
203,3.624,0.0267240864234689
204,3.632,0.0276429243958239
205,3.639,0.0145750065667746
206,3.647,0.0133012735045681
207,3.654,0.0305404240335149
208,3.662,0.0400691141171968
209,3.669,0.0349887665980909
210,3.677,0.0128734547661171
211,3.685,0.0274581844860383
212,3.692,0.0238363099389245
213,3.700,0.0232383360204077
214,3.707,0.0341428522743355
215,3.715,0.0268991031801079
216,3.722,0.0256691243070613
217,3.730,0.0335205704729522
218,3.737,0.0231411044889416
219,3.745,0.0214978916071638
220,3.752,0.0268456258378016
221,3.760,0.0113420581455254
222,3.767,0.0180607569698357
223,3.775,0.0236175389931257
224,3.783,0.0296313092143065
225,3.790,0.0209436718778068
226,3.798,0.0199859412928653
227,3.805,0.0265782391262697
228,3.813,0.0212450896253518
229,3.820,0.0173655515198528
230,3.828,0.00579986085195532
231,3.835,0.0160529258450599
232,3.843,0.0289652732237634
233,3.850,0.0155084292688495
234,3.858,0.0200005260225852
235,3.865,0.0182600816093413
236,3.873,0.0281290820531546
237,3.880,0.0411386609633243
238,3.888,0.0441625615919213
239,3.896,0.0205498841753689
240,3.903,0.0192810126897358
241,3.911,0.0284791155664327
242,3.918,0.0215756768323367
243,3.926,0.0164321288177779
244,3.933,0.0131943188199554
245,3.941,0.0184788525551401
246,3.948,0.0216340157512164
247,3.956,0.00142930351255227
248,3.963,0.0346387330848128
249,3.971,0.0794527459375572
250,3.978,0.0497874056872376
251,3.986,0.020788101427461
252,3.994,0.0223632522372125
253,4.001,0.0312599373663644
254,4.009,0.0365493326781225
255,4.016,0.029354199349628
256,4.024,0.023495999578793
257,4.031,0.0298695264663986
258,4.039,0.0269379957926944
259,4.046,0.0327718876806629
260,4.054,0.0208318556166207
261,4.061,0.0260531888563525
262,4.069,0.0250030883165182
263,4.076,0.0469822760044394
264,4.084,0.0426651960073427
265,4.091,0.0585431050957636
266,4.099,0.0814070997200267
267,4.107,0.0283235451160869
268,4.114,0.0272199672339462
269,4.122,0.0255573080458752
270,4.129,0.0348575040306116
271,4.137,0.0354117237599686
272,4.144,0.0353631079942355
273,4.152,0.0253822912892361
274,4.159,0.0129804094507298
275,4.167,0.043603480285991
276,4.174,0.0391356914151218
277,4.182,0.0399038205137043
278,4.189,0.0208172708869008
279,4.197,0.0106808837315556
280,4.204,0.0456502040233533
281,4.212,0.027628339666104
282,4.220,0.0132380730091151
283,4.227,0.0317947107894282
284,4.235,0.0175989071953715
285,4.242,0.00797784715679688
286,4.250,0.0130338867930362
287,4.257,0.00842997377811444
288,4.265,0.00504145490651942
289,4.272,0.0225042379578384
290,4.280,0.0238897872812309
291,4.287,0.0134033666126076
292,4.295,0.00690830031066933
293,4.302,0.0214930300305905
294,4.310,0.0201026191306247
295,4.318,0.0101898644976516
296,4.325,0.0149104553503327
297,4.333,0.0243905296682815
298,4.340,0.0132818271982749
299,4.348,0.0158924938181408
300,4.355,0.0205547457519422
301,4.363,0.0224215911560921
302,4.370,0.0285082850258726
303,4.378,0.0120761562080947
304,4.385,0.0159897253496069
305,4.393,0.00697636238269563
306,4.400,0.021517337913457
307,4.408,0.0391308298385485
308,4.415,0.0926810957935257
309,4.423,0.138452839231212
310,4.431,0.0614454663100279
311,4.438,0.038916920469323
312,4.446,0.0212402280487785
313,4.453,0.0371181371371994
314,4.461,0.0304334693489022
315,4.468,0.0191059959330967
316,4.476,0.0291402899804025
317,4.483,0.0180461722401158
318,4.491,0.0232091665609679
319,4.498,0.0262427903427115
320,4.506,0.0228980256602762
321,4.513,0.0378570967763421
322,4.521,0.0330927517345011
323,4.529,0.0225090995344117
324,4.536,0.0119351704874688
325,4.544,0.0326114556537437
326,4.551,0.0201317885900645
327,4.559,0.0213617674631112
328,4.566,0.0328642576355557
329,4.574,0.0181531269247285
330,4.581,0.0249058567850521
331,4.589,0.0217847246249889
332,4.596,0.026393499216484
333,4.604,0.0358055114624065
334,4.611,0.0195435378246944
335,4.619,0.0292472446650153
336,4.626,0.0324364388971047
337,4.634,0.0294903234936806
338,4.642,0.0289020727283105
339,4.649,0.021896540886175
340,4.657,0.0248232099833058
341,4.664,0.0198887097613992
342,4.672,0.0168210549436424
343,4.679,0.0273366450717056
344,4.687,0.0225236842641316
345,4.694,0.0159411095838738
346,4.702,0.0233501522815938
347,4.709,0.0344345468687339
348,4.717,0.0251635203434373
349,4.724,0.0266657475045892
350,4.732,0.0266365780451494
351,4.740,0.0363305617323236
352,4.747,0.0183524515642341
353,4.755,0.0253385371000764
354,4.762,0.0147694696297068
355,4.770,0.0261261125049521
356,4.777,0.0278228027290363
357,4.785,0.0122997887304669
358,4.792,0.0212839822379383
359,4.800,0.0249982267399449
360,4.807,0.0261893130004051
361,4.815,0.0224847916515451
362,4.822,0.0382411613256333
363,4.830,0.0400156367748904
364,4.837,0.0333115226803
365,4.845,0.0219791876879212
366,4.853,0.026758117459482
367,4.860,0.0229903956151691
368,4.868,0.019237258500576
369,4.875,0.0107538073801552
370,4.883,0.0123727123790665
371,4.890,0.0170787185020277
372,4.898,0.0239724340829771
373,4.905,0.0302049752499567
374,4.913,0.00908142503893758
375,4.920,0.0224070064263722
376,4.928,0.0155570450345826
377,4.935,0.0174773677810389
378,4.943,0.0357423109669535
379,4.950,0.0302535910156898
380,4.958,0.0154938445391296
381,4.966,0.0139235553059514
382,4.973,0.0118768315685891
383,4.981,0.0273852608374387
384,4.988,0.0200831728243315
385,4.996,0.012888039495837
386,5.003,0.0295389392594137
387,5.011,0.0379105741186484
388,5.018,0.0237682478668982
389,5.026,0.0238800641280843
390,5.033,0.0165536682321105
391,5.041,0.0254260454783959
392,5.048,0.0290625047552296
393,5.056,0.016893978592242
394,5.064,0.0298014643943723
395,5.071,0.0114879054427246
396,5.079,0.0185858072397529
397,5.086,0.0214152448054176
398,5.094,0.0343324537606944
399,5.101,0.0210846575984327
400,5.109,0.0183475899876608
401,5.116,0.0238800641280843
402,5.124,0.0304529156551954
403,5.131,0.0127567769283577
404,5.139,0.02466763953296
405,5.146,0.024492622776321
406,5.154,0.0148521164314531
407,5.161,0.00878973044453916
408,5.169,0.0210360418326996
409,5.177,0.00761809049037216
410,5.184,0.0290333352957897
411,5.192,0.0143076198552427
412,5.199,0.0157709544038081
413,5.207,0.0161452957999527
414,5.214,0.0153868898545168
415,5.222,0.0154646750796897
416,5.229,0.0124699439105326
417,5.237,0.0142103883237765
418,5.244,0.0192761511131625
419,5.252,0.0261698666941119
420,5.259,0.00918351814697703
421,5.267,0.027944342143369
422,5.275,0.0194949220589613
423,5.282,0.00707845549073507
424,5.290,0.01787601706005
425,5.297,0.0110503635511269
426,5.305,0.0276380628192506
427,5.312,0.0162328041782723
428,5.320,0.0116969532353768
429,5.327,0.0114538744067114
430,5.335,0
431,5.342,0.0146236223325076
432,5.350,0.0140645410265773
433,5.357,0.0341136828148956
434,5.365,0.0121636645864143
435,5.372,0.0189552870593242
436,5.380,0.0289847195300567
437,5.388,0.0195775688607075
438,5.395,0.0147986390891467
439,5.403,0.013014440486743
440,5.410,0.0165876992681237
441,5.418,0.0328205034463959
442,5.425,0.020724900932008
443,5.433,0.0117066763885234
444,5.440,0.0140402331437108
445,5.448,0.00905711715607105
446,5.455,0.0259122031357266
447,5.463,0.0184788525551401
448,5.470,0.0376431874071165
449,5.478,0.039043321460229
450,5.486,0.0351200291655702
451,5.493,0.0139478631888179
452,5.501,0.022752178363077
453,5.508,0.0204866836799159
454,5.516,0.0264615612885103
455,5.523,0.034040759166296
456,5.531,0.0191157190862433
457,5.538,0.0292715525478818
458,5.546,0.0219840492644945
459,5.553,0.0127762232346509
460,5.561,0.0111670413888863
461,5.568,0.0129804094507298
462,5.576,0.0188288860684182
463,5.583,0.0248037636770126
464,5.591,0.0186246998523393
465,5.599,0.0124748054871059
466,5.606,0.0203311132295701
467,5.614,0.03947114019868
468,5.621,0.0225820231830113
469,5.629,0.00852720530958058
470,5.636,0.0225188226875583
471,5.644,0.0255767543521684
472,5.651,0.0215562305260435
473,5.659,0.021405521652271
474,5.666,0.0247113937221198
475,5.674,0.0207540703914478
476,5.681,0.0100974945427588
477,5.689,0.015785539133528
478,5.697,0.0243127444431086
479,5.704,0.0218090325078555
480,5.712,0.0168842554390954
481,5.719,0.0242592671008022
482,5.727,0.0303751304300225
483,5.734,0.0311772905646182
484,5.742,0.030336237817436
485,5.749,0.0247794557941461
486,5.757,0.0258733105231402
487,5.764,0.0272539982699594
488,5.772,0.0310217201142723
489,5.779,0.0410462910084315
490,5.787,0.0204818221033426
491,5.794,0.0286395475933519
492,5.802,0.0226500852550376
493,5.810,0.0216729083638029
494,5.817,0.0256594011539146
495,5.825,0.0326065940771704
496,5.832,0.0291500131335491
497,5.840,0.00554219729357004
498,5.847,0.0222854670120395
499,5.855,0.0190427954376437
500,5.862,0.0114879054427246
501,5.870,0.0219840492644945
502,5.877,0.0255330001630087
503,5.885,0.01171639954167
504,5.892,0.0161598805296727
505,5.900,0.0256739858836346
506,5.907,0.0124116049916529
507,5.915,0.0149250400800527
508,5.923,0.00874111467880609
509,5.930,0.0182211889967548
510,5.938,0.0156639997191953
511,5.945,0.00731181116625381
512,5.953,0.0159508327370205
513,5.960,0.0114879054427246
514,5.968,0.02343279908334
515,5.975,0.0160043100793268
516,5.983,0.0126255143608784
517,5.990,0.0196699388156004
518,5.998,0.0197331393110533
519,6.005,0.0245801311546405
520,6.013,0.0148618395845997
521,6.021,0.0156056608003157
522,6.028,0.0192275353474294
523,6.036,0.0278422490353295
524,6.043,0.0430832915926471
525,6.051,0.0230827655700619
526,6.058,0.045567557221607
527,6.066,0.0256594011539146
528,6.073,0.00380175288032612
529,6.081,0.0296653402503197
530,6.088,0.0256982937665011
531,6.096,0.0212256433190586
532,6.103,0.019679661968747
533,6.111,0.0285034234492993
534,6.118,0.0439000364569627
535,6.126,0.0311043669160186
536,6.134,0.0530300772616334
537,6.141,0.0584410119877241
538,6.149,0.0452855857803552
539,6.156,0.046199562176137
540,6.164,0.037443862767611
541,6.171,0.0259267878654465
542,6.179,0.0246336084969469
543,6.186,0.0265539312434031
544,6.194,0.0289749963769101
545,6.201,0.0182649431859146
546,6.209,0.0285860702510455
547,6.216,0.0200005260225852
548,6.224,0.0272394135402394
549,6.232,0.035654802588634
550,6.239,0.0231411044889416
551,6.247,0.0307251639433006
552,6.254,0.0294368461513742
553,6.262,0.0387224574063907
554,6.269,0.0163786514754715
555,6.277,0.0262087593066983
556,6.284,0.0209193639949403
557,6.292,0.0219402950753347
558,6.299,0.00889668512915191
559,6.307,0.0181434037715819
560,6.314,0.0358103730389798
561,6.322,0.0287659485842579
562,6.329,0.027390122414012
563,6.337,0.0187316545369521
564,6.345,0.0242787134070954
565,6.352,0.0249398878210652
566,6.360,0.0126789917031848
567,6.367,0.0205644689050889
568,6.375,0.0189844565187641
569,6.382,0.00426360265479029
570,6.390,0.0130922257119159
571,6.397,0.0221007271022539
572,6.405,0.0204769605267693
573,6.412,0.0295000466468272
574,6.420,0.0273366450717056
575,6.427,0.0215756768323367
576,6.435,0.0205207147159291
577,6.443,0.0281533899360212
578,6.450,0.0180558953932624
579,6.458,0.0235057227319396
580,6.465,0.0286346860167786
581,6.473,0.0401371761892231
582,6.480,0.0326260403834637
583,6.488,0.0329177349778621
584,6.495,0.0281679746657411
585,6.503,0.0283624377286734
586,6.510,0.0272588598465327
587,6.518,0.0201998506620908
588,6.525,0.0150757489538252
589,6.533,0.0141374646751769
590,6.540,0.024478038046601
591,6.548,0.0281436667828746
592,6.556,0.0328448113292625
593,6.563,0.0332677684911402
594,6.571,0.0178954633663433
595,6.578,0.0288680416922973
596,6.586,0.0398503431713979
597,6.593,0.0185906688163262
598,6.601,0.0340310360131494
599,6.608,0.0359708050658989
600,6.616,0.0198644018785326
601,6.623,0.0168016086373492
602,6.631,0.0293979535387878
603,6.638,0.0263740529101908
604,6.646,0.00863902157076664
605,6.653,0.015848739628981
606,6.661,0.0173072126009731
607,6.669,0.0399767441623039
608,6.676,0.0255816159287417
609,6.684,0.0325968709240238
610,6.691,0.0391308298385485
611,6.699,0.0167870239076293
612,6.706,0.0307348870964472
613,6.714,0.0122754808476003
614,6.721,0.0211673044001789
615,6.729,0.0309876890782592
616,6.736,0.0189163944467378
617,6.744,0.0179100480960632
618,6.751,0.0120372635955083
619,6.759,0.0237925557497647
620,6.767,0.0243273291728285
621,6.774,0.00889182355257861
622,6.782,0.0168405012499356
623,6.789,0.018192019537315
624,6.797,0.0128831779192637
625,6.804,0.0377015263259962
626,6.812,0.00994678566898624
627,6.819,0.0203262516529968
628,6.827,0.0331170596173677
629,6.834,0.0241717587224827
630,6.842,0.00658257468025776
631,6.849,0.0210360418326996
632,6.857,0.0280707431342749
633,6.864,0.0288729032688706
634,6.872,0.0230730424169153
635,6.880,0.0150611642241053
636,6.887,0.0150271331880921
637,6.895,0.0277109864678502
638,6.902,0.0221882354805734
639,6.910,0.0185371914740198
640,6.917,0.0182746663390612
641,6.925,0.0281582515125945
642,6.932,0.0257371863790876
643,6.940,0.0218576482735885
644,6.947,0.0200831728243315
645,6.955,0.0326697945726234
646,6.962,0.0278616953416227
647,6.970,0.0311529826817516
648,6.978,0.0229028872368495
649,6.985,0.00756947472463909
650,6.993,0.0319211117803341
651,7.000,0.0253045060640632
652,7.008,0.0363159770026037
653,7.015,0.031697479257962
654,7.023,0.0662535655410286
655,7.030,0.139872419590617
656,7.038,0.128933872300676
657,7.045,0.0893460542642371
658,7.053,0.0637060994166157
659,7.060,0.050395102758901
660,7.068,0.0411581072696175
661,7.075,0.0401274530360764
662,7.083,0.0450376453751166
663,7.091,0.0424804560975571
664,7.098,0.0546927364497044
665,7.106,0.0295729702954268
666,7.113,0.0306862713307141
667,7.121,0.0378570967763421
668,7.128,0.0286541323230718
669,7.136,0.024730840028413
670,7.143,0.0324218541673848
671,7.151,0.0526022585231824
672,7.158,0.0628601850928602
673,7.166,0.090469078452671
674,7.173,0.0912566538575468
675,7.181,0.0602252105901278
676,7.189,0.0723159515279425
677,7.196,0.0568512764482527
678,7.204,0.0495783578945854
679,7.211,0.0647610615330233
680,7.219,0.0824280308004211
681,7.226,0.100561711418856
682,7.234,0.168521690337116
683,7.241,0.183072389021024
684,7.249,0.147451617468403
685,7.256,0.108899315242078
686,7.264,0.104650297317008
687,7.271,0.088013982283151
688,7.279,0.0731813121579911
689,7.286,0.069617776529757
690,7.294,0.0522230555504644
691,7.302,0.0573811882947432
692,7.309,0.0418630358727471
693,7.317,0.0599578238785959
694,7.324,0.0367243494347615
