#"+EI TIC Scan TOL-SLA.d "
#Point,X(Minutes),Y(Counts)
0,2.095,0.0813155771514803
1,2.102,0.0778860706736207
2,2.110,0.0724582171519314
3,2.117,0.05957448464328
4,2.125,0.0622521377779166
5,2.132,0.0630567527592606
6,2.140,0.0654705977032925
7,2.147,0.061556343675197
8,2.155,0.0502290794911127
9,2.162,0.0450254629314373
10,2.170,0.0500246281433941
11,2.177,0.061094679341639
12,2.185,0.0482142444353702
13,2.193,0.0416520156940812
14,2.200,0.0569792715682075
15,2.208,0.0465654432440915
16,2.215,0.0422719649420019
17,2.223,0.0525341035565202
18,2.230,0.381529298059496
19,2.238,0.582099367773778
20,2.245,0.174657510192147
21,2.253,0.0936881812908352
22,2.260,0.0715975429300839
23,2.268,0.0909940401442859
24,2.275,0.0745554922672378
25,2.283,0.0775497152305998
26,2.290,0.0659025836154075
27,2.298,0.0421532512562299
28,2.306,0.0484186957830887
29,2.313,0.0673271478446722
30,2.321,0.044088943854791
31,2.328,0.0387501255974307
32,2.336,0.0384335557687052
33,2.343,0.0464731103773799
34,2.351,0.0635217146952011
35,2.358,0.0598679712553276
36,2.366,0.0583576693641164
37,2.373,0.049094704271513
38,2.381,0.0497839031694674
39,2.388,0.036088960474707
40,2.396,0.0413882075034766
41,2.404,0.035769093043599
42,2.411,0.0357427122245385
43,2.419,0.0560427524915612
44,2.426,0.0625522195947293
45,2.434,0.0472876181658716
46,2.441,0.209704428313966
47,2.449,0.395761749942613
48,2.456,0.0995645087365523
49,2.464,0.0425687491564321
50,2.471,0.0365110535796743
51,2.479,0.0362373525819221
52,2.486,0.035999925210378
53,2.494,0.0317822917630872
54,2.501,0.0339191381069843
55,2.509,0.0648506484553717
56,2.517,0.0876634617379031
57,2.524,1.31498160448999
58,2.532,2.32683440756578
59,2.539,0.502656828775591
60,2.547,0.240665617083796
61,2.554,0.181285690981087
62,2.562,0.149803481034813
63,2.569,0.124280038593819
64,2.577,0.128982419591346
65,2.584,0.101091298639676
66,2.592,0.0856849003083687
67,2.599,0.0832347817381286
68,2.607,0.0852957832272269
69,2.615,0.0730517855807917
70,2.622,0.0802570467866794
71,2.630,0.0868753347684719
72,2.637,0.178337634451081
73,2.645,0.174113405799025
74,2.652,0.0957557779846987
75,2.660,0.0829808663546717
76,2.667,0.0817277774492999
77,2.675,0.128378958355338
78,2.682,0.397565538445872
79,2.690,0.178278277608195
80,2.697,0.0908126720132453
81,2.705,0.13686698688804
82,2.712,0.216151240971865
83,2.720,0.100487837403668
84,2.728,0.0704961437343098
85,2.735,0.0624071250898968
86,2.743,0.0646297090957404
87,2.750,0.0846626435697759
88,2.758,0.0918085479327776
89,2.765,0.0735629139500881
90,2.773,0.0616222957228481
91,2.780,0.0630039911211396
92,2.788,0.0532035168401794
93,2.795,0.0971572589972855
94,2.803,0.0788093993407367
95,2.810,0.0577443153209607
96,2.818,0.057757505730491
97,2.826,0.060230707517409
98,2.833,0.0750995966603598
99,2.841,0.048431886192619
100,2.848,0.0385390790449471
101,2.856,0.0472414517325158
102,2.863,0.0580707779568339
103,2.871,0.0578663266091154
104,2.878,0.0455662697221767
105,2.886,0.0392480635571969
106,2.893,0.0464467295583195
107,2.901,0.0498564504218837
108,2.908,0.0580410995353909
109,2.916,0.0657212154843668
110,2.923,0.0613222139060354
111,2.931,0.0566363209204215
112,2.939,0.0519537255371901
113,2.946,0.0546610570932697
114,2.954,0.0545423434074976
115,2.961,0.0378828561708182
116,2.969,0.0721977065637094
117,2.976,1.60609724042453
118,2.984,18.7435587520461
119,2.991,58.1045355124242
120,2.999,100
121,3.006,83.1544950129205
122,3.014,0.401196198669068
123,3.021,0.106011321394452
124,3.029,0.0720822904803199
125,3.036,0.0677228601305791
126,3.044,0.0550699597887068
127,3.052,0.0527154716875609
128,3.059,0.0856354362726303
129,3.067,0.0849660229889712
130,3.074,0.0651408374650368
131,3.082,0.0595876750528103
132,3.089,0.0499751641076558
133,3.097,0.0426116179874053
134,3.104,0.0525967580017888
135,3.112,0.0578531361995851
136,3.119,0.0689001041811521
137,3.127,0.0713667107633049
138,3.134,0.0832051033166856
139,3.142,0.0939783703005003
140,3.150,0.0993798430031291
141,3.157,0.0496322134598698
142,3.165,0.0289958177498263
143,3.172,0.0525308059541377
144,3.180,0.0525275083517551
145,3.187,0.0440724558428782
146,3.195,0.0557525634818961
147,3.202,0.0532364928640049
148,3.210,0.0410155784342476
149,3.217,0.0241846158736752
150,3.225,0.0345094089334621
151,3.232,0.0335827826639635
152,3.240,0.0215531291723945
153,3.247,0.0297179926716063
154,3.255,0.0397492991193456
155,3.263,0.0408045318817639
156,3.270,0.068118572416486
157,3.278,0.0549017820671964
158,3.285,0.0263478430366328
159,3.293,0.0253750503337784
160,3.300,0.0352876430957456
161,3.308,0.0610485129082832
162,3.315,0.0648770292744322
163,3.323,0.0519075591038343
164,3.330,0.0455926505412371
165,3.338,0.0269414114654931
166,3.345,0.0363824470867546
167,3.353,0.0188919640496707
168,3.361,0.0190931177950067
169,3.368,0.0193074619498729
170,3.376,0.0132860399993233
171,3.383,0.0221961616369931
172,3.391,0.01885239282108
173,3.398,0.012573757884691
174,3.406,0.0190271657473556
175,3.413,0.0137641923447941
176,3.421,0.0156998849433553
177,3.428,0.01539650552416
178,3.436,0.0188029287853417
179,3.443,0.0287946640044903
180,3.451,0.0385291862377994
181,3.458,0.141645212740366
182,3.466,0.259046452764171
183,3.474,0.10141776127555
184,3.481,0.0374838462825287
185,3.489,0.0580048259091828
186,3.496,0.110064074722615
187,3.504,0.0427501172874727
188,3.511,0.0126990667752281
189,3.519,0.0159669907363424
190,3.526,0.0223412561418257
191,3.534,0.0191326890235974
192,3.541,0.00586313703618687
193,3.549,0.0170156282939956
194,3.556,0.0279636682040858
195,3.564,0.0225490050919268
196,3.572,0.0210156199840376
197,3.579,0.0153701247050995
198,3.587,0.0121681527916364
199,3.594,0.0220444719273955
200,3.602,0.0224665650323628
201,3.609,0.0227534564396453
202,3.617,0.0230997046898138
203,3.624,0.0210716792245411
204,3.632,0.0203857779289692
205,3.639,0.0192876763355776
206,3.647,0.0162340965293296
207,3.654,0.0114459778698564
208,3.662,0.0203066354717878
209,3.669,0.00901234731152908
210,3.677,0.00759108068464689
211,3.685,0.0276075271467697
212,3.692,0.0133124208183838
213,3.700,0.0156504209076169
214,3.707,0.0199438992097065
215,3.715,0.021497069931891
216,3.722,0.0147237946381183
217,3.730,0.016573749574733
218,3.737,0.0216058908105154
219,3.745,0.021183797705548
220,3.752,0.029094745821303
221,3.760,0.0156899921362076
222,3.767,0.0217015212796095
223,3.775,0.0155086240051669
224,3.782,0.0112745025459634
225,3.790,0.012029653491569
226,3.798,0.0144336056284533
227,3.805,0.0236009402519625
228,3.813,0.00304698460148294
229,3.820,0.0114064066412657
230,3.828,0.0128540540872083
231,3.835,0.0135036817565721
232,3.843,0.0238053915996811
233,3.850,0.0138565252115057
234,3.858,0.0178268384801047
235,3.865,0.0146182713618765
236,3.873,0.022502838658571
237,3.880,0.0277954904825754
238,3.888,0.0278647401326091
239,3.896,0.0222917921060873
240,3.903,0.0193503307808462
241,3.911,0.0175696254942653
242,3.918,0.0203363138932308
243,3.926,0.0107534813695193
244,3.933,0.00344929209215493
245,3.941,0.0109678255243856
246,3.948,0.0137542995376465
247,3.956,0.00921679865924763
248,3.963,0.0410485544580732
249,3.971,0.0891572756172015
250,3.978,0.0557426706747485
251,3.986,0.0158153010267448
252,3.993,0.0140378933425464
253,4.001,0.0738333173454578
254,4.009,0.199293897592233
255,4.016,0.106304808006499
256,4.024,0.0386380071164238
257,4.031,0.0264995327462304
258,4.039,0.0255036568266981
259,4.046,0.0185226325828243
260,4.054,0.019284378733195
261,4.061,0.0267534481296873
262,4.069,0.0237229515401172
263,4.076,0.0247023394477367
264,4.084,0.0328375245255055
265,4.091,0.0416816941155242
266,4.099,0.0284747965733822
267,4.107,0.0287913664021077
268,4.114,0.0200922913169216
269,4.122,0.0350996797599398
270,4.129,0.03252095469678
271,4.137,0.0283692732971404
272,4.144,0.0357064385983304
273,4.152,0.0244978881000181
274,4.159,0.0200461248835658
275,4.167,0.0212497497531992
276,4.174,0.0252101702146505
277,4.182,0.0148128299024474
278,4.189,0.025124432552704
279,4.197,0.017355281339399
280,4.204,0.019337140371316
281,4.212,0.0250716709145831
282,4.220,0.0167122488748004
283,4.227,0.0180906466707093
284,4.235,0.0290551745927123
285,4.242,0.0232711800137068
286,4.250,0.131831548049875
287,4.257,0.452909199232331
288,4.265,0.339280416334172
289,4.272,0.0691441267574613
290,4.280,0.0253750503337784
291,4.287,0.0160988948316447
292,4.295,0.0120230582868039
293,4.302,0.0182950980184279
294,4.310,0.0161351684578528
295,4.318,0.0202571714360494
296,4.325,0
297,4.333,0.015567980848053
298,4.340,0.0212695353674945
299,4.348,0.0256421561267655
300,4.355,0.0190502489640335
301,4.363,0.0167419272962434
302,4.370,0.0197955071024914
303,4.378,0.0374904414872939
304,4.385,0.0287122239449263
305,4.393,0.0272579812942186
306,4.400,0.0207452165886679
307,4.408,0.0333882241233926
308,4.415,0.142924682464798
309,4.423,0.16545390194243
310,4.431,0.0436074939069376
311,4.438,0.0257971434387457
312,4.446,0.0221335071917245
313,4.453,0.0155481952337576
314,4.461,0.0126496027394898
315,4.468,0.0307567374221119
316,4.476,0.028982627340296
317,4.483,0.0197889118977263
318,4.491,0.0198746495596728
319,4.498,0.0464170511368764
320,4.506,0.109681552846238
321,4.513,0.120187714037066
322,4.521,0.0827434389831276
323,4.528,0.0571903181206911
324,4.536,0.0586082871451908
325,4.544,0.0516503461179949
326,4.551,0.0517097029608809
327,4.559,0.0358713187174582
328,4.566,0.050852326341416
329,4.574,0.0329958094398683
330,4.581,0.0316470900654023
331,4.589,0.016029645181611
332,4.596,0.0274327542204941
333,4.604,0.0175960063133257
334,4.611,0.0324517050467463
335,4.619,0.0270403395369698
336,4.626,0.0279109065659649
337,4.634,0.0207320261791377
338,4.642,0.021988412686892
339,4.649,0.0304665484124468
340,4.657,0.0248507315549518
341,4.664,0.0255696088743492
342,4.672,0.0257542746077725
343,4.679,0.020171433774103
344,4.687,0.0242274847046484
345,4.694,0.0180543730445012
346,4.702,0.0158977410863087
347,4.709,0.00756140226320387
348,4.717,0.0195547821285647
349,4.724,0.0305357980624805
350,4.732,0.0255234424409934
351,4.739,0.0395184669525666
352,4.747,0.0540575958572617
353,4.755,0.0551589950530358
354,4.762,0.0350073468932282
355,4.770,0.0264006046747537
356,4.777,0.0251046469384087
357,4.785,0.0215234507509514
358,4.792,0.0159669907363424
359,4.800,0.0235217977947812
360,4.807,0.0218729966035025
361,4.815,0.0456783882031836
362,4.822,0.034994156483698
363,4.830,0.03424889834524
364,4.837,0.0267204721058617
365,4.845,0.0418696574513299
366,4.853,0.261305310396222
367,4.860,0.425539099457106
368,4.868,0.171046635583247
369,4.875,0.0779487251188893
370,4.883,0.0541796071454163
371,4.890,0.0470633812038577
372,4.898,0.0448243091861013
373,4.905,0.0393469916286736
374,4.913,0.0309018319269444
375,4.920,0.0298828727907342
376,4.928,0.0271491604155942
377,4.935,0.0212794281746422
378,4.943,0.0294113156500285
379,4.950,0.0417608365727056
380,4.958,0.0719075175540443
381,4.966,0.0782323189237892
382,4.973,0.0349018236169864
383,4.981,0.0303808107505003
384,4.988,0.0186347510638313
385,4.996,0.0239010220687753
386,5.003,0.0441812767215026
387,5.011,0.12909124046997
388,5.018,0.643550188172734
389,5.026,0.530327010367629
390,5.033,0.169595690534922
391,5.041,0.0929857919833505
392,5.048,0.07784649944503
393,5.056,0.0627995397734211
394,5.064,0.0506841486199056
395,5.071,0.0522999737873587
396,5.079,0.0469446675180856
397,5.086,0.0430304134899901
398,5.094,0.0390073385832702
399,5.101,0.0435580298711993
400,5.109,0.0408869719413279
401,5.116,0.0329694286208078
402,5.124,0.0362868166176605
403,5.131,0.0248771123740122
404,5.139,0.039224980340519
405,5.146,0.164857035911187
406,5.154,0.475883595031608
407,5.161,0.259412486628635
408,5.169,0.097213318237789
409,5.177,0.0830270327880275
410,5.184,0.0674326711209141
411,5.192,0.08244995237108
412,5.199,0.0734244146500207
413,5.207,0.062479672342313
414,5.214,0.0418696574513299
415,5.222,0.0435019706306958
416,5.229,0.03999991690042
417,5.237,0.111129200292181
418,5.244,0.851496994416796
419,5.252,1.74679933888348
420,5.259,0.596668175099917
421,5.267,0.233480141492204
422,5.275,0.167254392843306
423,5.282,0.130660899204068
424,5.290,0.10862632008382
425,5.297,0.113905781498294
426,5.305,0.105477109808478
427,5.312,0.0879338651332728
428,5.320,0.076408744806235
429,5.327,0.0755348801748573
430,5.335,0.0653156103913123
431,5.342,0.046360991896373
432,5.350,0.0637492492595976
433,5.357,0.0575035903470341
434,5.365,0.0503774715983278
435,5.372,0.0485604926855387
436,5.380,0.0498267720004407
437,5.388,0.0404516884268303
438,5.395,0.042651189215996
439,5.403,0.0420807040038136
440,5.410,0.040662734979314
441,5.418,0.0524021994612179
442,5.425,0.0337509603854739
443,5.433,0.0379784866399123
444,5.440,0.0350271325075236
445,5.448,0.0465258720155008
446,5.455,0.0334574737734263
447,5.463,0.0467402161703671
448,5.470,0.0425093923135461
449,5.478,0.0461763261629498
450,5.485,0.0433832569449237
451,5.493,0.0424368450611298
452,5.501,0.032230765687115
453,5.508,0.0391821115095458
454,5.516,0.023254692001794
455,5.523,0.0409298407723011
456,5.531,0.0341136966475552
457,5.538,0.0360394964389687
458,5.546,0.0354887968410816
459,5.553,0.0295399221429482
460,5.561,0.0357229266102431
461,5.568,0.031999933520336
462,5.576,0.0366957193130975
463,5.583,0.048148292387719
464,5.591,0.0485473022760085
465,5.599,0.039195301919076
466,5.606,0.255485042191009
467,5.614,3.45147510493218
468,5.621,10.9226252885278
469,5.629,7.13155319743276
470,5.636,1.18469333435515
471,5.644,0.533390482981025
472,5.651,0.368843421693798
473,5.659,0.298172505033213
474,5.666,0.232602979258444
475,5.674,0.200523903280926
476,5.681,0.176382156238224
477,5.689,0.169368155970525
478,5.696,0.140916442613821
479,5.704,0.13066419680645
480,5.712,0.109823349748688
481,5.719,0.118990684372197
482,5.727,0.124738405324995
483,5.734,0.104365817805556
484,5.742,0.0883526606358575
485,5.749,0.0812166490800036
486,5.757,0.0833238170024577
487,5.764,0.0707764399368272
488,5.772,0.071485424449077
489,5.779,0.0713634131609224
490,5.787,0.0646264114933578
491,5.794,0.0649264933101705
492,5.802,0.0563164534893134
493,5.810,0.0576651728637794
494,5.817,0.0496849750979907
495,5.825,0.049384893281178
496,5.832,0.0544434153360209
497,5.840,0.0574343406970004
498,5.847,0.0581532180163979
499,5.855,0.0472150709134553
500,5.862,0.0369430394917893
501,5.870,0.038763316006961
502,5.877,0.0476305688136575
503,5.885,0.0412793866248522
504,5.892,0.0406495445697837
505,5.900,0.0422455841229415
506,5.907,0.0340411493951389
507,5.915,0.0575728399970678
508,5.923,0.0390304217999481
509,5.930,0.0475349383445634
510,5.938,0.0351128701694701
511,5.945,0.0308985343245618
512,5.953,0.0404681764387431
513,5.960,0.042532475530224
514,5.968,0.0327352988516462
515,5.975,0.030189549812312
516,5.983,0.0399273696480037
517,5.990,0.0427534148898553
518,5.998,0.0485308142640957
519,6.005,0.0368968730584335
520,6.013,0.0452101286648605
521,6.021,0.047597592789832
522,6.028,0.0502092938768173
523,6.036,0.0390139337880353
524,6.043,0.0380807123137716
525,6.051,0.0415300044059265
526,6.058,0.0452035334600954
527,6.066,0.04259183237311
528,6.073,0.0301235977646609
529,6.081,0.0356602721649746
530,6.088,0.0352216910480944
531,6.096,0.0375300127158845
532,6.103,0.0395877166026003
533,6.111,0.0387962920307865
534,6.118,0.0391557306904853
535,6.126,0.0541796071454163
536,6.134,0.0869643700328009
537,6.141,0.0677492409496396
538,6.149,0.0437855644355957
539,6.156,0.0417146701393497
540,6.164,0.0318086725821476
541,6.171,0.0308622606983537
542,6.179,0.0350798941456445
543,6.186,0.0320526951584569
544,6.194,0.0435019706306958
545,6.201,0.0522274265349424
546,6.209,0.045012272521907
547,6.216,0.0470501907943274
548,6.224,0.0422884529539147
549,6.231,0.04359760109979
550,6.239,0.0409694120008918
551,6.247,0.0499685689028907
552,6.254,0.0380972003256844
553,6.262,0.0291574002665716
554,6.269,0.0500707945767499
555,6.277,0.0643889841218137
556,6.284,0.0545324506003499
557,6.292,0.058450002230828
558,6.299,0.0555349217246474
559,6.307,0.0414343739368324
560,6.314,0.0441746815167375
561,6.322,0.0494475477264466
562,6.329,0.0495497734003059
563,6.337,0.0402505346814943
564,6.345,0.0296058741905994
565,6.352,0.040177987429078
566,6.360,0.0238119868044462
567,6.367,0.0344665401024888
568,6.375,0.0321813016513766
569,6.382,0.0339784949498703
570,6.390,0.03698261072038
571,6.397,0.031769101353557
572,6.405,0.0207122405648424
573,6.412,0.0470699764086228
574,6.420,0.0558745747700508
575,6.427,0.0467072401465415
576,6.435,0.0397492991193456
577,6.442,0.0383148420829332
578,6.450,0.0343511240190993
579,6.458,0.0346149322097039
580,6.465,0.0459817676223789
581,6.473,0.0437492908093876
582,6.480,0.0547171163337732
583,6.488,0.0452595927005988
584,6.495,0.0467270257608368
585,6.503,0.0519438327300425
586,6.510,0.0611441433773773
587,6.518,0.0670798276659804
588,6.525,0.061988329587312
589,6.533,0.0541532263263559
590,6.540,0.0647352323719822
591,6.548,0.0647451251791299
592,6.556,0.0633106681427175
593,6.563,0.0611738217988203
594,6.571,0.0496421062670175
595,6.578,0.0545753194313232
596,6.586,0.0599800897363346
597,6.593,0.061928972744426
598,6.601,0.0550270909577335
599,6.608,0.0871622261757544
600,6.616,0.0951655071582209
601,6.623,0.0903279244630094
602,6.631,0.0690649843002799
603,6.638,0.0458531611294592
604,6.646,0.0440823486500259
605,6.653,0.0479669242566784
606,6.661,0.0568473674729052
607,6.669,0.0582323604735792
608,6.676,0.0620213056111376
609,6.684,0.0715019124609898
610,6.691,0.0562208230202193
611,6.699,0.0582389556783443
612,6.706,0.0459718748152312
613,6.714,0.0391128618595121
614,6.721,0.0381268787471274
615,6.729,0.0451474742195919
616,6.736,0.0421697392681427
617,6.744,0.0537179428118583
618,6.751,0.0443230736239526
619,6.759,0.0422818577491496
620,6.767,0.041325553058208
621,6.774,0.0408012342793814
622,6.782,0.0460081484414393
623,6.789,0.0412727914200871
624,6.797,0.0359768419937001
625,6.804,0.0369496346965545
626,6.812,0.0326990252254381
627,6.819,0.0255795016814969
628,6.827,0.0392150875333713
629,6.834,0.0248540291573343
630,6.842,0.0367122073250103
631,6.849,0.0385555670568599
632,6.857,0.0361878885461837
633,6.864,0.0450815221719407
634,6.872,0.0585225494832443
635,6.880,0.0592381292002592
636,6.887,0.0684450350523592
637,6.895,0.0744598617981437
638,6.902,0.0689330802049776
639,6.910,0.0690550914931323
640,6.917,0.0580147187163304
641,6.925,0.054881996452901
642,6.932,0.0669776019921212
643,6.940,0.0659685356630586
644,6.947,0.0711688546203515
645,6.955,0.051224955410645
646,6.962,0.0477723657161075
647,6.970,0.0532364928640049
648,6.978,0.0707698447320621
649,6.985,0.0793963725648319
650,6.993,0.0779289395045939
651,7.000,0.0585885015308954
652,7.008,0.0548424252243103
653,7.015,0.0742916840766332
654,7.023,0.116550458609105
655,7.030,0.172603103907814
656,7.038,0.122083835407036
657,7.045,0.0819091455803406
658,7.053,0.0979816595929248
659,7.060,0.0934111826907004
660,7.068,0.0886527424526703
661,7.075,0.0728308462211604
662,7.083,0.0689132945906823
663,7.091,0.0787335544859379
664,7.098,0.0779124514926812
665,7.106,0.0700212889912216
666,7.113,0.0914326212611661
667,7.121,0.0746346347244192
668,7.128,0.0631358952164419
669,7.136,0.0718547559159234
670,7.143,0.0660278925059447
671,7.151,0.0766890410087524
672,7.158,0.105510085832303
673,7.166,0.128890086724634
674,7.173,0.114225648929402
675,7.181,0.0927054957808332
676,7.188,0.078740149690703
677,7.196,0.0746610155434797
678,7.204,0.0821927393852405
679,7.211,0.076319709541906
680,7.219,0.1060212142016
681,7.226,0.200698676207202
682,7.234,0.206304600257549
683,7.241,0.147287410416921
684,7.249,0.123221508229018
685,7.256,0.137496828943109
686,7.264,0.12444821631533
687,7.271,0.101935484849611
688,7.279,0.100125101141587
689,7.286,0.0874722007997147
690,7.294,0.0855595914178315
691,7.302,0.0913633716111324
692,7.309,0.119059934022231
693,7.317,0.124408645086739
694,7.324,0.111699685504363
695,7.332,0.103541417209916
696,7.339,0.0868984179851498
697,7.347,0.0762735431085502
698,7.354,0.0840262063099424
