#"+EI TIC Scan TOL-PEEK-1Week.d "
#Point,X(Minutes),Y(Counts)
0,2.095,0.089932801267087
1,2.102,0.072989038422813
2,2.110,0.0723415276778637
3,2.117,0.0652562006781573
4,2.125,0.0610829769764164
5,2.133,0.0642967999408765
6,2.140,0.0566521050201406
7,2.148,0.0622220534701491
8,2.155,0.0603032519955874
9,2.163,0.0510313049409477
10,2.170,0.0465394110296506
11,2.178,0.0496006791065572
12,2.185,0.0595235270147585
13,2.193,0.058092901180368
14,2.200,0.0616457350060581
15,2.208,0.0522076726294157
16,2.215,0.0452138785622414
17,2.223,0.0483802400061293
18,2.230,0.0747247740323104
19,2.238,0.0974418918433309
20,2.246,0.0785149154608615
21,2.253,0.0518686617681857
22,2.261,0.0618694821744699
23,2.268,0.0594930160372478
24,2.276,0.0555299790694694
25,2.283,0.0618559217400207
26,2.291,0.0538891665011164
27,2.298,0.0494074429156561
28,2.306,0.0525466834906457
29,2.313,0.0444036426039017
30,2.321,0.0438680054431584
31,2.328,0.0384506118807034
32,2.336,0.0427763904699979
33,2.343,0.0379759966749815
34,2.351,0.0600117026549297
35,2.359,0.0565605720876085
36,2.366,0.0522246231724772
37,2.374,0.0477598501300785
38,2.381,0.0397558036964388
39,2.389,0.0400439629284843
40,2.396,0.0335213939584196
41,2.404,0.035131695549262
42,2.411,0.0385997766596446
43,2.419,0.0551129957101566
44,2.426,0.0460037738689072
45,2.434,0.0836916113118432
46,2.441,0.313618947723847
47,2.449,0.239243354878604
48,2.457,0.0599506806999083
49,2.464,0.0476208556769742
50,2.472,0.0478717237142844
51,2.479,0.0242630073382291
52,2.487,0.0306059005518419
53,2.494,0.0373861177764413
54,2.502,0.0310906860834007
55,2.509,0.0709346326037594
56,2.517,0.0698396275219866
57,2.524,0.0738331754672756
58,2.532,0.0565029402411994
59,2.539,0.0353554427176738
60,2.547,0.0332162841833127
61,2.554,0.0363284038894038
62,2.562,0.0344841848043128
63,2.570,0.0413389844183828
64,2.577,0.0496752614960278
65,2.585,0.0439900493532012
66,2.592,0.033819723516302
67,2.600,0.0453766037756318
68,2.607,0.0377183484204467
69,2.615,0.039972770647626
70,2.622,0.0419593742944336
71,2.630,0.0331654325541282
72,2.637,0.045457966382327
73,2.645,0.0515838926447525
74,2.652,0.0482175147927389
75,2.660,0.0429594563350621
76,2.668,0.0385760458993585
77,2.675,0.0348130253397058
78,2.683,0.0429458959006129
79,2.690,0.0331349215766175
80,2.698,0.0362300907396471
81,2.705,0.0348740472947272
82,2.713,0.0379353153716339
83,2.720,0.0360436347659706
84,2.728,0.041284742680586
85,2.735,0.0381082109108612
86,2.743,0.0373759474506044
87,2.750,0.0568589016454909
88,2.758,0.062730569761994
89,2.765,0.0413830558303427
90,2.773,0.0520212166557392
91,2.781,0.0461902298425837
92,2.788,0.0378302220046526
93,2.796,0.0764944107279309
94,2.803,0.0590862030037718
95,2.811,0.0483395587027817
96,2.818,0.0317958286747591
97,2.826,0.0499159592075011
98,2.833,0.0491836957472443
99,2.841,0.0437222307728295
100,2.848,0.0360538050918075
101,2.856,0.0393625510974121
102,2.863,0.0363317939980161
103,2.871,0.0429391156833883
104,2.879,0.0458173178952307
105,2.886,0.0381794031917195
106,2.894,0.0414067865906288
107,2.901,0.0395456169624762
108,2.909,0.0535094743365388
109,2.916,0.0487904431482176
110,2.924,0.0561639293799695
111,2.931,0.0429323354661637
112,2.939,0.0426475663427305
113,2.946,0.0506583929935947
114,2.954,0.0469835152578618
115,2.961,0.0438103735967493
116,2.969,0.11962676260222
117,2.976,3.61234718237903
118,2.984,26.1591323762831
119,2.992,66.7071739444388
120,2.999,100
121,3.007,8.22572902590653
122,3.014,0.129491978664012
123,3.022,0.0852171601873781
124,3.029,0.0681581336502859
125,3.037,0.0579539067272637
126,3.044,0.0505193985404904
127,3.052,0.0586963405133574
128,3.059,0.0875292142609665
129,3.067,0.0624220698782748
130,3.074,0.0639340583193604
131,3.082,0.0652053490489728
132,3.089,0.0570826488139027
133,3.097,0.0391659247978987
134,3.105,0.0601778179769323
135,3.112,0.0417457974518588
136,3.120,0.0394812048988425
137,3.127,0.0604897079692639
138,3.135,0.065456217086283
139,3.142,0.0943365523544643
140,3.150,0.0797658655388001
141,3.157,0.0454105048617548
142,3.165,0.0402711002055084
143,3.172,0.0606253123137559
144,3.180,0.056180879923031
145,3.187,0.0438137637053616
146,3.195,0.0546044794183116
147,3.203,0.0436476483833589
148,3.210,0.0393625510974121
149,3.218,0.0301143348030584
150,3.225,0.0372911947352969
151,3.233,0.0318500704125559
152,3.240,0.0264936988051223
153,3.248,0.0347825143621951
154,3.255,0.0277649895347347
155,3.263,0.0720059069252461
156,3.270,0.0991030450633577
157,3.278,0.0650256732925209
158,3.285,0.0375556232070563
159,3.293,0.0396201993519468
160,3.300,0.0291345934141038
161,3.308,0.0628865147581598
162,3.316,0.0540722323661805
163,3.323,0.0430408189417573
164,3.331,0.0398473366289709
165,3.338,0.0357453052080883
166,3.346,0.0356097008635963
167,3.353,0.0287210001634032
168,3.361,0.0253546223113896
169,3.368,0.0132858356516026
170,3.376,0.0135299234716882
171,3.383,0.0168657903461911
172,3.391,0.0211407173063011
173,3.398,0.0212390304560577
174,3.406,0.0252495289444083
175,3.414,0.0199440089661593
176,3.421,0.0194693937604373
177,3.429,0.0201982671120817
178,3.436,0.0261072264233202
179,3.444,0.021513629253654
180,3.451,0.0421932917886823
181,3.459,0.164827080730012
182,3.466,0.203718406730315
183,3.474,0.0758096087882464
184,3.481,0.0436544286005835
185,3.489,0.0730602307036713
186,3.496,0.0788640966479284
187,3.504,0.0354978272793904
188,3.511,0.0222628432569723
189,3.519,0.0194693937604373
190,3.527,0.0311720486900959
191,3.534,0.0254800563300447
192,3.542,0.0173234550088516
193,3.549,0.0222560630397477
194,3.557,0.0237477108291595
195,3.564,0.0360843160693182
196,3.572,0.0170386858854184
197,3.579,0.0191439433336565
198,3.587,0.0135977256439342
199,3.594,0.018855784101611
200,3.602,0.0149842800663648
201,3.609,0.0195846574532555
202,3.617,0.0128078303372683
203,3.625,0.0188286632327127
204,3.632,0.0237443207205472
205,3.640,0.0191507235508811
206,3.647,0.0151063239764076
207,3.655,0.0169810540390093
208,3.662,0.0199372287489347
209,3.670,0.0139299562879396
210,3.677,0.0172014110988088
211,3.685,0.010892418971319
212,3.692,0.0192659872436993
213,3.700,0.0170658067543168
214,3.707,0.01764551532702
215,3.715,0.0249478092779136
216,3.722,0.0190761411614105
217,3.730,0.0260394242510742
218,3.738,0.0187269599743437
219,3.745,0.0217712775081888
220,3.753,0.0210356239393198
221,3.760,0.0149435987630172
222,3.768,0.0212356403474455
223,3.775,0.0128756325095143
224,3.783,0.0158724885227873
225,3.790,0.0137367200970385
226,3.798,0.0101093038818778
227,3.805,0.0180353778174345
228,3.813,0.0115534901507174
229,3.820,0.0187066193226699
230,3.828,0.0229340847622076
231,3.836,0.0218628104407209
232,3.843,0.00460376749550302
233,3.851,0.01079071571295
234,3.858,0.00999404018905958
235,3.866,0.0202118275465309
236,3.873,0.0140926815013299
237,3.881,0.0146452692051348
238,3.888,0.0127535885994716
239,3.896,0.0181913228136003
240,3.903,0.0159640214553194
241,3.911,0.0153165107103701
242,3.918,0.0127095171875117
243,3.926,0.0179743558624131
244,3.933,0.0119433526411319
245,3.941,0.0154758458151482
246,3.949,0.0140723408496561
247,3.956,0.0102957598555543
248,3.964,0.0337044598234838
249,3.971,0.0680632106091415
250,3.979,0.0312601915140157
251,3.986,0.0122416821990143
252,3.994,0.0153571920137177
253,4.001,0.0097397820431371
254,4.009,0.00919397455655684
255,4.016,0.00574623409784803
256,4.024,0.0109805617952388
257,4.031,0.0161335268859344
258,4.039,0.0158046863505413
259,4.046,0.00613609658826249
260,4.054,0.0188252731241003
261,4.062,0.015936900586421
262,4.069,0.0172251418590949
263,4.077,0.016435246552429
264,4.084,0.0361860193276872
265,4.092,0.0423424565676235
266,4.099,0.0396812213069682
267,4.107,0.0219848543507637
268,4.114,0.0012712907296124
269,4.122,0.0153470216878808
270,4.129,0.00595642083181061
271,4.137,0.0200796133106512
272,4.144,0.010621210282335
273,4.152,0.0143367693214155
274,4.160,0.0173098945744024
275,4.167,0.0187066193226699
276,4.175,0.0166522135036162
277,4.182,0.0157470545041322
278,4.190,0.0170285155595815
279,4.197,0.0141740441080251
280,4.205,0.0233103868181729
281,4.212,0.0103669521364125
282,4.220,0.0159267302605841
283,4.227,0.00812270023507013
284,4.235,0.0195134651723972
285,4.242,0.0249884905812612
286,4.250,0.165213553111815
287,4.257,0.410433669473903
288,4.265,0.215892286757083
289,4.273,0.0475361029616667
290,4.280,0.0192320861575763
291,4.288,0.0213983655608358
292,4.295,0.014184214433862
293,4.303,0.0116823142779848
294,4.310,0.0110788749449955
295,4.318,0.0142960880180679
296,4.325,0.00905158999484025
297,4.333,0.0165437300280226
298,4.340,0.0171946308815842
299,4.348,0.0243002985329644
300,4.355,0.00872274945944718
301,4.363,0.0111873584205891
302,4.371,0.0118857207947228
303,4.378,0.0159063896089103
304,4.386,0.0104245839828216
305,4.393,0.014557126381215
306,4.401,0.0127739292511453
307,4.408,0.0308059169599676
308,4.416,0.104652652861692
309,4.423,0.0943433325716889
310,4.431,0.0322772240977056
311,4.438,0.0162013290581804
312,4.446,0.00749553014179468
313,4.453,0.01404861008937
314,4.461,0.018493042480095
315,4.468,0.0150554723472231
316,4.476,0.0212627612163438
317,4.484,0.0152351481036749
318,4.491,0.0175370318514265
319,4.499,0.0198490859250149
320,4.506,0.0104347543086585
321,4.514,0.0188286632327127
322,4.521,0.0201609759173464
323,4.529,0.0120247152478271
324,4.536,0.0132756653257657
325,4.544,0.00981436443260769
326,4.551,0.0197778936441566
327,4.559,0.015099543759183
328,4.566,0.00751248068485618
329,4.574,0.0096550293278296
330,4.582,0.0105839190875997
331,4.589,0.0169030815409264
332,4.597,0.0162894718821002
333,4.604,0.0124722095846507
334,4.612,0.0154182139687391
335,4.619,0.0105466278928644
336,4.627,0.00870240880777338
337,4.634,0
338,4.642,0.0167606969792098
339,4.649,0.00987199627901679
340,4.657,0.0233442879042959
341,4.664,0.0117874076449661
342,4.672,0.0203169209135122
343,4.679,0.0165437300280226
344,4.687,0.00929567781492583
345,4.695,0.0101533752938377
346,4.702,0.014116412261616
347,4.710,0.0105432377842521
348,4.717,0.0203948934115951
349,4.725,0.0130485280487416
350,4.732,0.0146317087706856
351,4.740,0.0155572084218434
352,4.747,0.00531908041269826
353,4.755,0.00831593642597121
354,4.762,0.0108822486454821
355,4.770,0.0139875881343486
356,4.777,0.0135197531458513
357,4.785,0.0114144956976132
358,4.792,0.0108619079938083
359,4.800,0.00722432145281071
360,4.808,0.0108280069076853
361,4.815,0.0161572576462205
362,4.823,0.00673953592125185
363,4.830,0.0165335597021857
364,4.838,0.0198626463594641
365,4.845,0.018120130532742
366,4.853,0.00443087195627574
367,4.860,0.0073192444939551
368,4.868,0.00651578875284006
369,4.875,0.0124688194760384
370,4.883,0.0130485280487416
371,4.890,0.0126518853411026
372,4.898,0.0200253715728545
373,4.906,0.0210661349168305
374,4.913,0.0072785631906075
375,4.921,0.0244731940721917
376,4.928,0.00917363390488304
377,4.936,0.0118077482966399
378,4.943,0.00882106260920387
379,4.951,0.0170183452337446
380,4.958,0.0267343965165956
381,4.966,0.026558110868756
382,4.973,0.0150825932161215
383,4.981,0.015258878863961
384,4.988,0.00857358468050599
385,4.996,0.013346857606624
386,5.003,0.00999743029767188
387,5.011,0.0146995109429316
388,5.019,0.0140350496549208
389,5.026,0.0107873256043377
390,5.034,0.0201609759173464
391,5.041,0.01963550908244
392,5.049,0.0215170193622663
393,5.056,0.0173776967466484
394,5.064,0.0290328901557348
395,5.071,0.0186354270418116
396,5.079,0.0118857207947228
397,5.086,0.0185472842178918
398,5.094,0.0136621377075679
399,5.101,0.0133604180410732
400,5.109,0.0155334776615573
401,5.117,0.0191541136594934
402,5.124,0.0126010337119181
403,5.132,0.00621067897773309
404,5.139,0.0107669849526639
405,5.147,0.0113941550459394
406,5.154,0.00752943122791768
407,5.162,0.0208356075311941
408,5.169,0.0118145285138645
409,5.177,0.0145367857295412
410,5.184,0.00933635911827343
411,5.192,0.0171776803385227
412,5.199,0.0143130385611294
413,5.207,0.0100516720354687
414,5.214,0.00475293227444421
415,5.222,0.0114789077612469
416,5.230,0.00771927731020646
417,5.237,0.016469147638552
418,5.245,0.0127603688166961
419,5.252,0.00946179313692852
420,5.260,0.0143605000817016
421,5.267,0.0145096648606428
422,5.275,0.00296295492714996
423,5.282,0.0103127103986158
424,5.290,0.0193270091987207
425,5.297,0.0101432049680008
426,5.305,0.009716051282851
427,5.312,0.0139875881343486
428,5.320,0.0139672474826749
429,5.328,0.0100754027957548
430,5.335,0.00774978828771716
431,5.343,0.00718364014946311
432,5.350,0.00600727246099511
433,5.358,0.0115195890645945
434,5.365,0.00777351904800326
435,5.373,0.0186659380193223
436,5.380,0.0183167568322554
437,5.388,0.0132722752171534
438,5.395,0.0106686718029072
439,5.403,0.00868884837332418
440,5.410,0.0126145941463673
441,5.418,0.0138587640070813
442,5.425,0.0112619408100597
443,5.433,0.0120179350306025
444,5.441,0.00907871086373865
445,5.448,0.00776673883077866
446,5.456,0.0134078795616454
447,5.463,0.0187913720379774
448,5.471,0.0121196382889715
449,5.478,0.0201779264604079
450,5.486,0.00686496993990693
451,5.493,0.0129705555506587
452,5.501,0.0178963833643302
453,5.508,0.0127976600114314
454,5.516,0.0132214235879689
455,5.523,0.0159572412380948
456,5.531,0.0166895046983515
457,5.539,0.0131875225018459
458,5.546,0.00994657866848738
459,5.554,0.00885496369532687
460,5.561,0.012838341314779
461,5.569,0.011163627660303
462,5.576,0.0023832463544467
463,5.584,0.0158148566763782
464,5.591,0.0146689999654209
465,5.599,0.0128586819664528
466,5.606,0.0185845754126271
467,5.614,0.0137977420520599
468,5.621,0.0169369826270494
469,5.629,0.0158894390658488
470,5.636,0.0152487085381241
471,5.644,0.0179743558624131
472,5.652,0.0126518853411026
473,5.659,0.0101737159455115
474,5.667,0.0120552262253378
475,5.674,0.00584793735621702
476,5.682,0.0136214564042203
477,5.689,0.0149368185457926
478,5.697,0.0151605657142044
479,5.704,0.00497328933424369
480,5.712,0.0125535721913459
481,5.719,0.0102821994211051
482,5.727,0.012170489918156
483,5.734,0.0187167896485068
484,5.742,0.0179675756451885
485,5.749,0.0103669521364125
486,5.757,0.0114483967837362
487,5.765,0.0153368513620439
488,5.772,0.0101025236646532
489,5.780,0.0225476123804054
490,5.787,0.0127874896855945
491,5.795,0.00756672242265298
492,5.802,0.0200728330934266
493,5.810,0.0140384397635331
494,5.817,0.00704125558774652
495,5.825,0.00894649662785896
496,5.832,0.0137807915089984
497,5.840,0.0111907485292014
498,5.847,0.0155334776615573
499,5.855,0.0104788257206184
500,5.863,0.0140757309582684
501,5.870,0.0174115978327714
502,5.878,0.00947535357137772
503,5.885,0.00697006330688823
504,5.893,0.0097262216086879
505,5.900,0.0130214071798432
506,5.908,0.0110924353794447
507,5.915,0.00914651303598465
508,5.923,0.0204694758010657
509,5.930,0.0140689507410438
510,5.938,0.0217475467479027
511,5.945,0.0106246003909473
512,5.953,0.00953298541778681
513,5.960,0.0132993960860518
514,5.968,0.0141198023702283
515,5.976,0.00907532075512635
516,5.983,0.0113941550459394
517,5.991,0.0130519181573539
518,5.998,0.010350001593351
519,6.006,0.010994122229688
520,6.013,0.00976690291203549
521,6.021,0.0145978076845626
522,6.028,0.0138824947673674
523,6.036,0.0138791046587551
524,6.043,0.0124823799104876
525,6.051,0.00751587079346848
526,6.058,0.020710173512539
527,6.066,0.0142689671491695
528,6.074,0.0153097304931455
529,6.081,0.00720398080113691
530,6.089,0.0163945652490814
531,6.096,0.019669410168563
532,6.104,0.00980080399815849
533,6.111,0.012679006210001
534,6.119,0.0156148402682525
535,6.126,0.0106076498478858
536,6.134,0.0120992976372977
537,6.141,0.0138994453104289
538,6.149,0.0159674115639317
539,6.156,0.0202321681982047
540,6.164,0.00621745919495769
541,6.171,0.0137977420520599
542,6.179,0.0114755176526346
543,6.187,0.0183879491131137
544,6.194,0.0213271732799775
545,6.202,0.0116246824315757
546,6.209,0.012238292090402
547,6.217,0.0144045714936615
548,6.224,0.0197846738613812
549,6.232,0.0154826260323728
550,6.239,0.0139604672654502
551,6.247,0.0116653637349233
552,6.254,0.0177709493456751
553,6.262,0.0121738800267683
554,6.269,0.0132756653257657
555,6.277,0.0131231104382122
556,6.285,0.0164827080730012
557,6.292,0.0117535065588431
558,6.300,0.0167166255672499
559,6.307,0.00654290962173846
560,6.315,0.00634628332222508
561,6.322,0.0143299891041909
562,6.330,0.010383902679474
563,6.337,0.0205779592766593
564,6.345,0.0126518853411026
565,6.352,0.0125162809966106
566,6.360,0.0144655934486829
567,6.367,0.0162318400356911
568,6.375,0.00825152436233752
569,6.382,0.00510550357012338
570,6.390,0.0154012634256776
571,6.398,0.0142282858458219
572,6.405,0.0140113188946347
573,6.413,0.0148825768079958
574,6.420,0.0147707032237899
575,6.428,0.00795319480445515
576,6.435,0.0147469724635038
577,6.443,0.0221679202158279
578,6.450,0.0307855763082938
579,6.458,0.0335790258048287
580,6.465,0.0458681695244152
581,6.473,0.0322094219254596
582,6.480,0.0280192476806572
583,6.488,0.0313347739034863
584,6.495,0.0268767810783122
585,6.503,0.0229544254138814
586,6.511,0.0131332807640491
587,6.518,0.0141706539994128
588,6.526,0.0180285976002099
589,6.533,0.0212593711077315
590,6.541,0.0112449902669982
591,6.548,0.0155131370098835
592,6.556,0.019364300393456
593,6.563,0.0146418790965225
594,6.571,0.0126925666444502
595,6.578,0.0220729971746835
596,6.586,0.0139502969396134
597,6.593,0.0125128908879983
598,6.601,0.0153843128826161
599,6.609,0.0136045058611588
600,6.616,0.013855373898469
601,6.624,0.0160352137361777
602,6.631,0.0131265005468245
603,6.639,0.0162318400356911
604,6.646,0.0145367857295412
605,6.654,0.0097397820431371
606,6.661,0.0149571591974664
607,6.669,0.0118789405774982
608,6.676,0.0166250926347178
609,6.684,0.0113500836339795
610,6.691,0.0111466771172415
611,6.699,0.00919736466516914
612,6.706,0.0136723080334048
613,6.714,0.0192151356145148
614,6.722,0.0222458927139108
615,6.729,0.0162047191667927
616,6.737,0.00704464569635882
617,6.744,0.00562758029641754
618,6.752,0.0134994124941775
619,6.759,0.0147740933324022
620,6.767,0.00778368937384016
621,6.774,0.0126722259927764
622,6.782,0.012204391004279
623,6.789,0.0147978240926883
624,6.797,0.0163132026423863
625,6.804,0.0173234550088516
626,6.812,0.0176929768475922
627,6.820,0.0176082241322848
628,6.827,0.0189540972513677
629,6.835,0.00952620520056222
630,6.842,0.00752604111930538
631,6.850,0.00526483867490147
632,6.857,0.00657681070786146
633,6.865,0.0122111712215036
634,6.872,0.0150453020213862
635,6.880,0.00914990314459695
636,6.887,0.0119738636186426
637,6.895,0.0110381936416479
638,6.902,0.0163877850318568
639,6.910,0.0181642019447019
640,6.917,0.0189879983374907
641,6.925,0.0215983819689615
642,6.933,0.0216017720775738
643,6.940,0.0246020181994591
644,6.948,0.022723898028245
645,6.955,0.0220967279349696
646,6.963,0.0227510188971434
647,6.970,0.0150588624558354
648,6.978,0.0179201141246163
649,6.985,0.0144350824711722
650,6.993,0.0226018541182022
651,7.000,0.0129197039214742
652,7.008,0.0146317087706856
653,7.015,0.0152419283208995
654,7.023,0.0250122213415473
655,7.031,0.025144435577427
656,7.038,0.0205847394938839
657,7.046,0.0221780905416648
658,7.053,0.0163504938371216
659,7.061,0.0134350004305438
660,7.068,0.0230900297583734
661,7.076,0.0157741753730306
662,7.083,0.0123603360004448
663,7.091,0.0124179678468539
664,7.098,0.0152893898414717
665,7.106,0.0150453020213862
666,7.113,0.0192524268092501
667,7.121,0.00702430504468502
668,7.128,0.0182625150944586
669,7.136,0.0153368513620439
670,7.144,0.0150114009352632
671,7.151,0.0218289093545979
672,7.159,0.0215577006656139
673,7.166,0.0168284991514558
674,7.174,0.0257139738242934
675,7.181,0.0137638409659369
676,7.189,0.018459141393972
677,7.196,0.0240426502784296
678,7.204,0.0167098453500253
679,7.211,0.0100482819268564
680,7.219,0.0178997734729425
681,7.226,0.0250698531879564
682,7.234,0.0280328081151064
683,7.242,0.0193168388728838
684,7.249,0.0253919135061249
685,7.257,0.0229849363913921
686,7.264,0.0179675756451885
687,7.272,0.0220255356541113
688,7.279,0.0122281217645651
689,7.287,0.0237748316980579
690,7.294,0.0145774670328888
691,7.302,0.017418378049996
