#"+EI TIC Scan TOL-Blank.d "
#Point,X(Minutes),Y(Counts)
0,2.095,0.0745181329594324
1,2.102,0.0715876806091647
2,2.110,0.0859738290726779
3,2.117,0.075755720057029
4,2.125,0.0681538573409627
5,2.132,0.0666245074820156
6,2.140,0.0668104661650741
7,2.147,0.0646559103889473
8,2.155,0.0644218589430288
9,2.162,0.0477753506250969
10,2.170,0.0549572032121862
11,2.177,0.048730793513915
12,2.185,0.0569001508317291
13,2.193,0.0594330363423543
14,2.200,0.0532322761176085
15,2.208,0.0566244189913319
16,2.215,0.0410904565875607
17,2.223,0.0535977811153443
18,2.230,0.105877820528325
19,2.238,0.114043971661949
20,2.245,0.0812222641021126
21,2.253,0.0606898605450949
22,2.260,0.0595067785787396
23,2.268,0.0623987567187193
24,2.275,0.063520921185452
25,2.283,0.0649284360451538
26,2.291,0.0538542758505975
27,2.298,0.0444024448565175
28,2.306,0.0450885682733198
29,2.313,0.0398464571215827
30,2.321,0.0481312370702607
31,2.328,0.0409461782989808
32,2.336,0.0415938275054951
33,2.343,0.0372077675326656
34,2.351,0.0574868825386207
35,2.358,0.0508949678426138
36,2.366,0.0510007719209057
37,2.373,0.0543736776894852
38,2.381,0.0502377000835275
39,2.388,0.0426198064465078
40,2.396,0.0404492197494277
41,2.404,0.0327062849289721
42,2.411,0.0528411216463474
43,2.419,0.0595452527890276
44,2.426,0.0274096686459938
45,2.434,0.0555407287348872
46,2.441,0.275533056977356
47,2.449,0.280476992999361
48,2.456,0.0677402595803669
49,2.464,0.048701937856199
50,2.471,0.0435303627566566
51,2.479,0.0340689132100047
52,2.486,0.0305228734951294
53,2.494,0.0376983137138373
54,2.502,0.0411128998768953
55,2.509,0.0652009617013604
56,2.517,0.0673458989249151
57,2.524,0.0859449734149619
58,2.532,0.0821777069909307
59,2.539,0.0373648705580081
60,2.547,0.037586097267164
61,2.554,0.0345530470227951
62,2.562,0.0353353559653173
63,2.569,0.0440465584113537
64,2.577,0.0463005058973911
65,2.584,0.0355469641219012
66,2.592,0.0336008103181676
67,2.599,0.0460151555044219
68,2.607,0.0352936755708387
69,2.615,0.0358579639883957
70,2.622,0.0372718912164789
71,2.630,0.0444697747245214
72,2.637,0.0474515260218398
73,2.645,0.052844327830538
74,2.652,0.0521710291504984
75,2.660,0.0458388153739353
76,2.667,0.0460343926095659
77,2.675,0.0432738680214035
78,2.682,0.039461715018703
79,2.690,0.0320426048015045
80,2.697,0.0360278917505009
81,2.705,0.0413693946121485
82,2.712,0.0285991629807304
83,2.720,0.0380542001590011
84,2.728,0.0358291083306797
85,2.735,0.0322125325636097
86,2.743,0.0366979842463499
87,2.750,0.0609078810700601
88,2.758,0.0651079823598311
89,2.765,0.0515265861281748
90,2.773,0.0454412485342929
91,2.780,0.0420074252660908
92,2.788,0.0426486621042238
93,2.795,0.0822193873854094
94,2.803,0.0669290949801287
95,2.810,0.0423440746061107
96,2.818,0.0451847537990397
97,2.826,0.0534823584844803
98,2.833,0.0597568609456114
99,2.841,0.0377111384505999
100,2.848,0.0398528694899641
101,2.856,0.0350211499146321
102,2.863,0.0416194769790204
103,2.871,0.0403658589604704
104,2.878,0.0473168662858318
105,2.886,0.0437932698602912
106,2.893,0.040551817643529
107,2.901,0.0387563544967567
108,2.908,0.0408083123787822
109,2.916,0.0546301724247384
110,2.923,0.0528058536202501
111,2.931,0.0513149779715909
112,2.939,0.0521774415188797
113,2.946,0.0514175758656922
114,2.954,0.0539953479549867
115,2.961,0.0525172970430902
116,2.969,0.0842745514516255
117,2.976,2.1373417732071
118,2.984,20.7337198623495
119,2.991,61.4471869004035
120,2.999,100
121,3.006,24.2085245768767
122,3.014,0.153589047469609
123,3.021,0.0794524504288656
124,3.029,0.0733895561243184
125,3.037,0.0654029513053722
126,3.044,0.0601704587062072
127,3.052,0.0612862108045586
128,3.059,0.0681089707622934
129,3.067,0.0848548707901359
130,3.074,0.04938164890462
131,3.082,0.0604269534414604
132,3.089,0.0463518048444417
133,3.097,0.034104181236102
134,3.104,0.0502377000835275
135,3.112,0.0510584832363377
136,3.119,0.0422478890803907
137,3.127,0.0613503344883719
138,3.134,0.0699364957509723
139,3.142,0.0788689249061646
140,3.150,0.0781603582000277
141,3.157,0.0368711181926458
142,3.165,0.0350532117565388
143,3.172,0.0549219351860889
144,3.180,0.0495579890351066
145,3.187,0.0548770486074195
146,3.195,0.0548674300548476
147,3.202,0.0510969574466257
148,3.210,0.0422062086859121
149,3.217,0.0381022929218611
150,3.225,0.0444120634090895
151,3.232,0.0372975406900042
152,3.240,0.0339182225530434
153,3.248,0.022366340914078
154,3.255,0.0280188436422201
155,3.263,0.0368390563507391
156,3.270,0.0576984906952046
157,3.278,0.0466435676057922
158,3.285,0.0296924717897472
159,3.293,0.0320297800647418
160,3.300,0.0374802931888721
161,3.308,0.0545115436096838
162,3.315,0.0513823078395949
163,3.323,0.0424017859215426
164,3.330,0.0485672781201911
165,3.338,0.0224240522295099
166,3.345,0.0286151939016838
167,3.353,0.0329371301907
168,3.361,0.0240335566932237
169,3.368,0.0221002276262528
170,3.376,0.0177269923901859
171,3.383,0.0173967554185475
172,3.391,0.0197404760619235
173,3.398,0.0261817001009692
174,3.406,0.0180732602827777
175,3.413,0.0192435175123704
176,3.421,0.0209171456598975
177,3.428,0.0231069694621216
178,3.436,0.0169446834476637
179,3.443,0.0164220754245854
180,3.451,0.0333571403196771
181,3.458,0.132732819309334
182,3.466,0.255176993550825
183,3.474,0.115156517576109
184,3.481,0.0327607900602134
185,3.489,0.0526134825688102
186,3.496,0.0832646034315661
187,3.504,0.0402376115928438
188,3.511,0.0192659608017051
189,3.519,0.0189036619881599
190,3.526,0.0121129638723318
191,3.534,0.0162649723992428
192,3.541,0.0190703835660745
193,3.549,0.0240720309035117
194,3.556,0.0293365853445834
195,3.564,0.0336392845284556
196,3.572,0.0195994039575342
197,3.579,0.0213211248679212
198,3.587,0.0147067668825797
199,3.594,0.0224977944658952
200,3.602,0.0191120639605532
201,3.609,0.0156750345081604
202,3.617,0.0173005698928275
203,3.624,0.0126131286060755
204,3.632,0.0224913820975139
205,3.639,0.0121738813719544
206,3.647,0.0191505381708411
207,3.654,0.0235398043278613
208,3.662,0.015306323326234
209,3.669,0.0149247874075449
210,3.677,0.0258995558921906
211,3.685,0.0138795713613881
212,3.692,0.0177013429166606
213,3.700,0.0103816244093728
214,3.707,0.0190222908032145
215,3.715,0.0155820551666312
216,3.722,0.0193845896167597
217,3.730,0.0209973002646641
218,3.737,0.0243445565597182
219,3.745,0.0181694458084977
220,3.752,0.016521467134496
221,3.760,0.0172396523932049
222,3.767,0.0193845896167597
223,3.775,0.0150915089854594
224,3.783,0.022356722361506
225,3.790,0.012904891367426
226,3.798,0.00886830547137897
227,3.805,0.00944862480988931
228,3.813,0.0110581292736031
229,3.820,0.0133409324173564
230,3.828,0.0280252560106014
231,3.835,0.0165759722657373
232,3.843,0.0142290454381706
233,3.850,0.0126259533428382
234,3.858,0.0221643513100661
235,3.865,0.0170152194998584
236,3.873,0.0155724366140592
237,3.880,0.0214397536829758
238,3.888,0.0141328599124507
239,3.896,0.0198366615876434
240,3.903,0.0100770369112596
241,3.911,0.0200803315861339
242,3.918,0.0080539346869501
243,3.926,0.0180315798882991
244,3.933,0.00861501692031645
245,3.941,0.00839699639535124
246,3.948,0.0115550878231561
247,3.956,0.012330984397297
248,3.963,0.0291410081089528
249,3.971,0.0809561508142874
250,3.978,0.0568135838585811
251,3.986,0.0193493215906624
252,3.994,0.00666565693239222
253,4.001,0.0186151054110001
254,4.009,0.0155628180614872
255,4.016,0.0184900642275642
256,4.024,0.00912800639082282
257,4.031,0.0124239637388263
258,4.039,0.0147099730667703
259,4.046,0.0206895065823603
260,4.054,0.0197084142200168
261,4.061,0.0150722718803155
262,4.069,0.0136134580735629
263,4.076,0.0231582684091722
264,4.084,0.0293269667920114
265,4.091,0.0468359386572321
266,4.099,0.0344344182077405
267,4.107,0.0226100109125685
268,4.114,0.0192018371178918
269,4.122,0.0160020652956083
270,4.129,0.016463755819064
271,4.137,0.0265375865461329
272,4.144,0.0246587626104034
273,4.152,0.0172075905512982
274,4.159,0.0297245336316538
275,4.167,0.0116160053227787
276,4.174,0.0169927762105237
277,4.182,0.0242291339288543
278,4.189,0.0210165373698081
279,4.197,0.0133954375485977
280,4.204,0.0204843107941577
281,4.212,0.022901773673919
282,4.220,0.019993764612986
283,4.227,0.0101251296741196
284,4.235,0.0304491312587441
285,4.242,0.0262233804954478
286,4.250,0.115082775339724
287,4.257,0.440058398721322
288,4.265,0.315498142913993
289,4.272,0.0605616131774683
290,4.280,0.0172204152880609
291,4.287,0.017717373837614
292,4.295,0.00983977928115042
293,4.302,0.0115839434808721
294,4.310,0.0149504368810702
295,4.318,0.0151299831957474
296,4.325,0.0188106826466307
297,4.333,0.0224625264397979
298,4.340,0.0120071597940399
299,4.348,0.00966343915066385
300,4.355,0.0156718283239698
301,4.363,0.0122059432138611
302,4.370,0.014023849649968
303,4.378,0.0190511464609305
304,4.385,0.0250627418184271
305,4.393,0
306,4.400,0.0146811174090543
307,4.408,0.0206670632930256
308,4.415,0.114149775740241
309,4.423,0.129061738411023
310,4.431,0.0399554673840653
311,4.438,0.0183201364654589
312,4.446,0.0109811808530271
313,4.453,0.00882341889270966
314,4.461,0.0207408055294109
315,4.468,0.0126227471586475
316,4.476,0.00514913181020775
317,4.483,0.0174384358130261
318,4.491,0.0160084776639896
319,4.498,0.0162489414782895
320,4.506,0.014693942145817
321,4.513,0.0166593330546946
322,4.521,0.00872723336698972
323,4.529,0.0242515772181889
324,4.536,0.0209652384227574
325,4.544,0.0157712200338804
326,4.551,0.0151203646431754
327,4.559,0.00825271810677132
328,4.566,0.00985260401791308
329,4.574,0.0100834492796409
330,4.581,0.0106862119074859
331,4.589,0.018836332120156
332,4.596,0.0136839941257576
333,4.604,0.0140206434657774
334,4.611,0.0214333413145945
335,4.619,0.0181021159404937
336,4.626,0.017008807131477
337,4.634,0.0109811808530271
338,4.642,0.0115807372966814
339,4.649,0.0120873143988065
340,4.657,0.0161784054260948
341,4.664,0.019381383432569
342,4.672,0.0222220626254981
343,4.679,0.0204875169783484
344,4.687,0.011728221769452
345,4.694,0.0148253956976343
346,4.702,0.00629694575046576
347,4.709,0.0189485485668293
348,4.717,0.0161495497683788
349,4.724,0.00870479007765506
350,4.732,0.0220809905211088
351,4.740,0.0170601060785277
352,4.747,0.0164605496348733
353,4.755,0.0194935998792423
354,4.762,0.0077076667943583
355,4.770,0.0176468377854193
356,4.777,0.0119205928208919
357,4.785,0.015354416089094
358,4.792,0.0108721705905445
359,4.800,0.0106701809865326
360,4.807,0.0175474460755087
361,4.815,0.017630806864466
362,4.822,0.0200354450074646
363,4.830,0.0131742108394419
364,4.837,0.0197148265883982
365,4.845,0.0266690400979502
366,4.853,0.0137224683360456
367,4.860,0.0143797360951318
368,4.868,0.0127798501839901
369,4.875,0.0146105813568597
370,4.883,0.0200867439545153
371,4.890,0.0109138509850231
372,4.898,0.00961534638780388
373,4.905,0.0107856036173966
374,4.913,0.00630015193465643
375,4.920,0.0121546442668104
376,4.928,0.0169030030531851
377,4.935,0.0165759722657373
378,4.943,0.00817897587038603
379,4.951,0.0161174879264722
380,4.958,0.0338060061063702
381,4.966,0.0275315036452391
382,4.973,0.0223535161773153
383,4.981,0.0192467236965611
384,4.988,0.0109074386166418
385,4.996,0.015918704506651
386,5.003,0.0122412112399584
387,5.011,0.0162553538466708
388,5.018,0.00900937757576822
389,5.026,0.0117218094010707
390,5.033,0.0110004179581711
391,5.041,0.0197789502722115
392,5.048,0.0204618675048231
393,5.056,0.0143861484635132
394,5.064,0.0113050054562843
395,5.071,0.0119045618999386
396,5.079,0.0163836012142974
397,5.086,0.0110549230894124
398,5.094,0.0179161572574352
399,5.101,0.0174191987078821
400,5.109,0.0158353437176937
401,5.116,0.0130908500504846
402,5.124,0.0127766439997994
403,5.131,0.0212858568418239
404,5.139,0.0188203011992027
405,5.146,0.0198847543505034
406,5.154,0.0174865285758861
407,5.161,0.0100770369112596
408,5.169,0.0116127991385881
409,5.177,0.017640425417038
410,5.184,0.0157359520077831
411,5.192,0.01287603570971
412,5.199,0.0134210870221231
413,5.207,0.00530944101974099
414,5.214,0.0183970848860349
415,5.222,0.0194038267219037
416,5.229,0.0161142817422815
417,5.237,0.0199520842185074
418,5.244,0.010073830727069
419,5.252,0.0207921044764615
420,5.259,0.0101539853318356
421,5.267,0.0186503734370974
422,5.275,0.015812900428359
423,5.282,0.0104746037509021
424,5.290,0.00790645021417952
425,5.297,0.00767239876826098
426,5.305,0.0110901911155097
427,5.312,0.0160501580584682
428,5.320,0.0242579895865702
429,5.327,0.0160950446371375
430,5.335,0.0110036241423618
431,5.342,0.0080539346869501
432,5.350,0.0113210363772376
433,5.357,0.0226356603860938
434,5.365,0.0150658595119341
435,5.372,0.0224432893346539
436,5.380,0.00756018232158771
437,5.388,0.0194711565899076
438,5.395,0.0188042702782493
439,5.403,0.0161719930577135
440,5.410,0.00949671757274928
441,5.418,0.0150305914858368
442,5.425,0.0130427572876246
443,5.433,0.0137513239937615
444,5.440,0.00920816099558944
445,5.448,0.0163483331882001
446,5.455,0.012379077160157
447,5.463,0.0287915340321703
448,5.470,0.0245754018214461
449,5.478,0.0241970720869476
450,5.486,0.0232801034084175
451,5.493,0.0161271064790442
452,5.501,0.0187850331731053
453,5.508,0.0120167783466119
454,5.516,0.0197436822461141
455,5.523,0.0183073117286963
456,5.531,0.00560761614947282
457,5.538,0.0131389428133445
458,5.546,0.0208017230290335
459,5.553,0.015364034641666
460,5.561,0.0174191987078821
461,5.568,0.0138058291250028
462,5.576,0.0105868201975753
463,5.583,0.0177334047585673
464,5.591,0.0196154348784875
465,5.599,0.0143284371480812
466,5.606,0.0265696483880396
467,5.614,0.0233762889341374
468,5.621,0.0243509689280995
469,5.629,0.0400837147516919
470,5.636,0.0251172469496684
471,5.644,0.0210325682907614
472,5.651,0.0223214543354087
473,5.659,0.0256302364201748
474,5.666,0.024011113403889
475,5.674,0.0226965778857165
476,5.681,0.0212570011841079
477,5.689,0.0204714860573951
478,5.697,0.0233474332764214
479,5.704,0.0201508676383286
480,5.712,0.0287626783744544
481,5.719,0.0265504112828956
482,5.727,0.03284094466498
483,5.734,0.0336360783442649
484,5.742,0.0226965778857165
485,5.749,0.024059206166749
486,5.757,0.0232512477507015
487,5.764,0.0316963369089127
488,5.772,0.0198591048769781
489,5.779,0.0226164232809498
490,5.787,0.0185445693588055
491,5.794,0.0159764158220829
492,5.802,0.00962817112456654
493,5.810,0.014693942145817
494,5.817,0.0137128497834736
495,5.825,0.0183554044915563
496,5.832,0.0145272205679024
497,5.840,0.0131004686030566
498,5.847,0.0215070835509798
499,5.855,0.0155083129302459
500,5.862,0.0171915596303449
501,5.870,0.0095864907300879
502,5.877,0.0107022428284393
503,5.885,0.0249793810294698
504,5.892,0.0190126722506425
505,5.900,0.0253352674746336
506,5.907,0.0175089718652207
507,5.915,0.0186856414631947
508,5.923,0.0219976297321515
509,5.930,0.0197340636935421
510,5.938,0.0175763017332247
511,5.945,0.0237770619579705
512,5.953,0.0159924467430363
513,5.960,0.0162393229257175
514,5.968,0.0207728673713176
515,5.975,0.0217411349968983
516,5.983,0.0172107967354889
517,5.990,0.0196154348784875
518,5.998,0.0149824987229768
519,6.005,0.0187561775153894
520,6.013,0.0192274865914171
521,6.021,0.0246844120839287
522,6.028,0.0264285762836503
523,6.036,0.0199328471133634
524,6.043,0.018884424883016
525,6.051,0.0263901020733624
526,6.058,0.0174544667339794
527,6.066,0.0216289185502251
528,6.073,0.0210133311856174
529,6.081,0.0180508169934431
530,6.088,0.0220457224950115
531,6.096,0.0283747300873839
532,6.103,0.0142066021488359
533,6.111,0.0170825493678623
534,6.118,0.0290929153460928
535,6.126,0.0377111384505999
536,6.134,0.0531841833547485
537,6.141,0.034755036626807
538,6.149,0.0250114428713765
539,6.156,0.0253833602374936
540,6.164,0.0133441386015471
541,6.171,0.0323568108521897
542,6.179,0.025790545629708
543,6.186,0.0199296409291727
544,6.194,0.0260406279965799
545,6.201,0.0224881759133232
546,6.209,0.0253352674746336
547,6.216,0.0183682292283189
548,6.224,0.0125522111064529
549,6.232,0.0172204152880609
550,6.239,0.0201957542169979
551,6.247,0.0178873015997192
552,6.254,0.0238892784046438
553,6.262,0.0262907103634518
554,6.269,0.0250755665551898
555,6.277,0.0148221895134436
556,6.284,0.0229178045948723
557,6.292,0.0284869465340572
558,6.299,0.0216802174972757
559,6.307,0.0189100743565413
560,6.314,0.0147548596454396
561,6.322,0.0188683939620626
562,6.329,0.0206927127665509
563,6.337,0.0198847543505034
564,6.345,0.0190800021186465
565,6.352,0.0198911667188847
566,6.360,0.0173390441031155
567,6.367,0.0161495497683788
568,6.375,0.012311747292153
569,6.382,0.0121129638723318
570,6.390,0.0126355718954102
571,6.397,0.022404815124366
572,6.405,0.00574548206967141
573,6.412,0.0201059810596593
574,6.420,0.0140494991234934
575,6.427,0.0250210614239485
576,6.435,0.0162649723992428
577,6.443,0.0245080719534421
578,6.450,0.0133313138647844
579,6.458,0.0211223414481
580,6.465,0.0248896078721312
581,6.473,0.0149440245126889
582,6.480,0.0243669998490528
583,6.488,0.0238315670892118
584,6.495,0.0177237862059953
585,6.503,0.0164701681874453
586,6.510,0.0284869465340572
587,6.518,0.0197981873773554
588,6.525,0.0198462801402154
589,6.533,0.0172364462090142
590,6.540,0.010532315066334
591,6.548,0.0210902796061934
592,6.556,0.0172204152880609
593,6.563,0.02358148472234
594,6.571,0.0156622097713978
595,6.578,0.0143701175425599
596,6.586,0.0114396651922922
597,6.593,0.0155596118772965
598,6.601,0.0152999109578527
599,6.608,0.0145624885939997
600,6.616,0.00639313127618571
601,6.623,0.0254763395790229
602,6.631,0.0218854132854783
603,6.638,0.0168452917377531
604,6.646,0.0248222780041273
605,6.654,0.0170248380524303
606,6.661,0.0205708777673057
607,6.669,0.0143156124113185
608,6.676,0.0240367628774144
609,6.684,0.0104008615145168
610,6.691,0.0160469518742776
611,6.699,0.0215647948664118
612,6.706,0.0161142817422815
613,6.714,0.0138090353091935
614,6.721,0.0193076411961837
615,6.729,0.0163996321352507
616,6.736,0.0149536430652609
617,6.744,0.024097680377037
618,6.751,0.0166433021337412
619,6.759,0.00679711048420948
620,6.767,0.0190543526451212
621,6.774,0.0233281961712774
622,6.782,0.0252519066856763
623,6.789,0.0193268783013277
624,6.797,0.0201540738225192
625,6.804,0.0200675068493713
626,6.812,0.00311320484913557
627,6.819,0.0133313138647844
628,6.827,0.0120263968991838
629,6.834,0.0188427444885373
630,6.842,0.0156814468765418
631,6.849,0.0180668479143964
632,6.857,0.0143092000429372
633,6.864,0.0249986181346138
634,6.872,0.0177686727846646
635,6.880,0.0193685586958063
636,6.887,0.0217026607866104
637,6.895,0.0227254335434324
638,6.902,0.0180508169934431
639,6.910,0.0264478133887943
640,6.917,0.018836332120156
641,6.925,0.0316129761199554
642,6.932,0.022366340914078
643,6.940,0.0147773029347743
644,6.947,0.0255500818154082
645,6.955,0.0239181340623598
646,6.962,0.0186984661999574
647,6.970,0.0195160431685769
648,6.978,0.017008807131477
649,6.985,0.0239053093255971
650,6.993,0.0263612464156464
651,7.000,0.024020731956461
652,7.008,0.0192178680388451
653,7.015,0.0332224805836692
654,7.023,0.0631233543458095
655,7.030,0.103902811066876
656,7.038,0.0840180567163724
657,7.045,0.0535015955896243
658,7.053,0.0445371045925254
659,7.060,0.0302567602073042
660,7.068,0.0323568108521897
661,7.075,0.031789316250442
662,7.083,0.0262778856266891
663,7.091,0.0309172341505811
664,7.098,0.0261784939167785
665,7.106,0.0283651115348119
666,7.113,0.034133036893818
667,7.121,0.0321836769058938
668,7.128,0.0305773786263707
669,7.136,0.0280797611418427
670,7.143,0.0342805213665886
671,7.151,0.0400131786994973
672,7.158,0.0604814585727017
673,7.166,0.0697280937785791
674,7.173,0.0471212890502013
675,7.181,0.0482017731224553
676,7.189,0.0507538957382246
677,7.196,0.0430013423651969
678,7.204,0.038265808315585
679,7.211,0.0389647564691499
680,7.219,0.0689105168099596
681,7.226,0.129799160774876
682,7.234,0.128196068679543
683,7.241,0.0920623728507505
684,7.249,0.0937616504718028
685,7.256,0.0619498909320262
686,7.264,0.0575958928011033
687,7.271,0.0409878586934594
688,7.279,0.0421356726337174
689,7.286,0.0397502715958628
690,7.294,0.0380606125273824
691,7.302,0.0431392082853955
692,7.309,0.0432578371004501
693,7.317,0.0438189193338165
