#"+EI TIC Scan TOL-TPU.d "
#Point,X(Minutes),Y(Counts)
0,2.095,0.0611033659725808
1,2.102,0.0670762288088212
2,2.110,0.0520363643555996
3,2.117,0.0480022340465323
4,2.125,0.0828132536455515
5,2.133,0.203562998721807
6,2.140,0.125155955365286
7,2.148,0.0988283593094117
8,2.155,0.0750974898505394
9,2.163,0.0724341805202814
10,2.170,0.0740204162243321
11,2.178,0.0620394408695392
12,2.185,0.0576880634196618
13,2.193,0.0646283342038046
14,2.200,0.0580993097133045
15,2.208,0.0560274117196185
16,2.215,0.0522321959240009
17,2.223,0.0626739351511594
18,2.230,0.128512508447684
19,2.238,0.119833253336138
20,2.246,0.0691481268025072
21,2.253,0.0495062204918545
22,2.261,0.0545939246389209
23,2.268,0.0545782581134488
24,2.276,0.0561997434998117
25,2.283,0.0663947349507846
26,2.291,0.0540573461415012
27,2.298,0.0320341279590884
28,2.306,0.045887253107798
29,2.313,0.0375213285056935
30,2.321,0.0326098727701883
31,2.328,0.0291005710644366
32,2.336,0.046036085099783
33,2.343,0.361657823892196
34,2.351,0.566180397299169
35,2.359,0.197750717771656
36,2.366,0.123953549535301
37,2.374,0.091617840960875
38,2.381,0.0798444470685875
39,2.389,0.0731861737429425
40,2.396,0.0685606320973032
41,2.404,0.0676128073062408
42,2.411,0.0631360976525866
43,2.419,0.0856253949677945
44,2.426,0.059944043087645
45,2.434,0.0776315503456525
46,2.441,0.329047951122007
47,2.449,0.318097049817005
48,2.457,0.0714041064704904
49,2.464,0.0473755730276481
50,2.472,0.0485270626498479
51,2.479,0.047359906502176
52,2.487,0.0397420584913645
53,2.494,0.0496668023779436
54,2.502,0.04233095182563
55,2.509,0.0783717936742095
56,2.517,0.0774278855145151
57,2.524,0.0798248639117473
58,2.532,0.0753599041521972
59,2.539,0.0466940791696115
60,2.547,0.0347405202343947
61,2.554,0.0306280572979669
62,2.562,0.0295862333540719
63,2.570,0.0466549128559312
64,2.577,0.0480179005720044
65,2.585,0.0372471643099317
66,2.592,0.0264450949969147
67,2.600,0.035081267163413
68,2.607,0.0419510385829314
69,2.615,0.0408073822234677
70,2.622,0.0251839396964102
71,2.630,0.039961389847974
72,2.637,0.0553028349165336
73,2.645,0.0667393985111709
74,2.652,0.0494905539663824
75,2.660,0.0458206703745416
76,2.668,0.0506263770631101
77,2.675,0.0368280847535528
78,2.683,0.0362758397306611
79,2.690,0.0421390368885967
80,2.698,0.0283054948967272
81,2.705,0.0357118448136653
82,2.713,0.0354729303002157
83,2.720,0.0258850167112869
84,2.728,0.0190230785545045
85,2.735,0.034039443219518
86,2.743,0.0376153276585261
87,2.750,0.0499292166796013
88,2.758,0.0642014213846898
89,2.765,0.0318108799711109
90,2.773,0.0385514025554845
91,2.781,0.0304165592040935
92,2.788,0.0316542147163899
93,2.796,0.0791629532105509
94,2.803,0.0454133407122668
95,2.811,0.0360878414249958
96,2.818,0.0295588169344957
97,2.826,0.0331738676871841
98,2.833,0.0462240834054483
99,2.841,0.0218156367199074
100,2.848,0.0234684551572146
101,2.856,0.0253797712648115
102,2.863,0.0370826657924745
103,2.871,0.0385670690809566
104,2.879,0.0309218046505689
105,2.886,0.0261748474325208
106,2.894,0.0391584804175286
107,2.901,0.0398987237460856
108,2.909,0.0474382391295365
109,2.916,0.0451744261988172
110,2.924,0.0426481989664401
111,2.931,0.0424014511902545
112,2.939,0.040251220569208
113,2.946,0.0468115781106523
114,2.954,0.0380109074266968
115,2.961,0.0383046547792988
116,2.969,0.0829542523748005
117,2.976,2.68672686920742
118,2.984,22.6257801684896
119,2.992,59.4199429777639
120,2.999,100
121,3.007,41.2398057429174
122,3.014,0.168610980393539
123,3.022,0.0962942988142986
124,3.029,0.0725908457750025
125,3.037,0.0674953083652
126,3.044,0.0503600461300843
127,3.052,0.057715479839238
128,3.059,0.0709223608122232
129,3.067,0.0761902300022188
130,3.074,0.0717957696072931
131,3.082,0.0661832368569112
132,3.089,0.0467880783224441
133,3.097,0.0455151731278355
134,3.105,0.0652079956462726
135,3.112,0.0514292864935555
136,3.120,0.0363345892011815
137,3.127,0.0478808184741235
138,3.135,0.0790532875322461
139,3.142,0.0833419988802351
140,3.150,0.0805846903971445
141,3.157,0.0652314954344807
142,3.165,0.0871607144640609
143,3.172,0.0753951538345094
144,3.180,0.0584008903286426
145,3.187,0.0412460449366867
146,3.195,0.0580601433996243
147,3.203,0.0513313707093548
148,3.210,0.0585301391637875
149,3.218,0.0470544092554699
150,3.225,0.0524436940178743
151,3.233,0.0572650672319149
152,3.240,0.0404509687689773
153,3.248,0.0354885968256878
154,3.255,0.0330602853775114
155,3.263,0.0461183343585116
156,3.270,0.0511277058782174
157,3.278,0.0436038570202386
158,3.285,0.0391819802057367
159,3.293,0.0435607740751903
160,3.300,0.037744576493671
161,3.308,0.0555613325868234
162,3.316,0.0503913791810285
163,3.323,0.0558237468884812
164,3.331,0.0372314977844595
165,3.338,0.0228809604520106
166,3.346,0.0350499341124688
167,3.353,0.226729873263684
168,3.361,0.226075795825223
169,3.368,0.0708126951339184
170,3.376,0.0429106132680979
171,3.383,0.0536735162674346
172,3.391,0.0276945004033151
173,3.398,0.0316659646104939
174,3.406,0.0272715042155683
175,3.414,0.0232804568515493
176,3.421,0.0189212461389358
177,3.429,0.0227438783541297
178,3.436,0.0296763158755365
179,3.444,0.0352692654690783
180,3.451,0.0478847351054915
181,3.459,0.165971170851489
182,3.466,0.267016343515204
183,3.474,0.0950096437255859
184,3.481,0.0323983746763149
185,3.489,0.068670297775608
186,3.496,0.0957381371600388
187,3.504,0.0422291194100613
188,3.511,0.0147657002574598
189,3.519,0.013026715930056
190,3.527,0.00981899483964234
191,3.534,0.00987382767879471
192,3.542,0.0158780235659793
193,3.549,0.00868708837428269
194,3.557,0.0221328838607175
195,3.564,0.0291279874840128
196,3.572,0.0147187006810434
197,3.579,0.0159681060874439
198,3.587,0.0198729875613663
199,3.594,0.0185804992099175
200,3.602,0.00806434398676649
201,3.609,0.0169825136117627
202,3.617,0.0235820374668873
203,3.625,0.00567519885227034
204,3.632,0.0181144200771224
205,3.640,0.0173389270662531
206,3.647,0.0147265339437795
207,3.655,0.0232530404319731
208,3.662,0.0158976067228194
209,3.670,0.00706951961928776
210,3.677,0.0174055097995096
211,3.685,0.00571436516595061
212,3.692,0.0168023485688335
213,3.700,0.0222660493272304
214,3.707,0.0215297226300415
215,3.715,0.0183102516455237
216,3.722,0.0192659096993222
217,3.730,0.0217059710416027
218,3.738,0.0180008377674496
219,3.745,0.016277519965518
220,3.753,0.0159054399855555
221,3.760,0.0131481315024648
222,3.768,0.0207307298309641
223,3.775,0.0357431778646095
224,3.783,0.023382289267118
225,3.790,0.00576919800510298
226,3.798,0.0144053701716013
227,3.805,0.0163206029105663
228,3.813,0.0187175813077985
229,3.820,0.0249881081280088
230,3.828,0.0172566778075246
231,3.836,0.0149850316140692
232,3.843,0.01895257918988
233,3.851,0.0194734911618276
234,3.858,0.0282780784771511
235,3.866,0.0483077312932384
236,3.873,0.0257205181938298
237,3.881,0.0252661889551387
238,3.888,0.0215493057868816
239,3.896,0.0196379896792847
240,3.903,0.00628227671431445
241,3.911,0.00970541252996957
242,3.918,0.0151142804492141
243,3.926,0.0129757997222717
244,3.933,0.01184780988828
245,3.941,0.00736718360325778
246,3.949,0.00732410065820948
247,3.956,0.0144249533284415
248,3.964,0.0397733915423087
249,3.971,0.0887587000622157
250,3.979,0.054609591164393
251,3.986,0.019246326542482
252,3.994,0.00704601983107961
253,4.001,0.0165634340553839
254,4.009,0.0123804717543316
255,4.016,0.0195518237891881
256,4.024,0.0155803595820093
257,4.031,0.012580219954101
258,4.039,0.00863225553513032
259,4.046,0.0160895216598527
260,4.054,0.00500937151970585
261,4.062,0.0201863180708084
262,4.069,0.0211811424382871
263,4.077,0.0036268006467925
264,4.084,0.0183024183827877
265,4.092,0.0268093417141411
266,4.099,0.0252309392728265
267,4.107,0.00935291570684719
268,4.114,0.0120318915625773
269,4.122,0.00975632873775392
270,4.129,0.0129248835144873
271,4.137,0.0107511531052326
272,4.144,0.00654860764734025
273,4.152,0.0184003341669883
274,4.160,0.0190113286604004
275,4.167,0.0191640772837535
276,4.175,0.0213260577989041
277,4.182,0.0170412630822831
278,4.190,0.0174995089523422
279,4.197,0.0155098602173848
280,4.205,0.0126546359500935
281,4.212,0.00710868593296803
282,4.220,0.00713610235254421
283,4.227,0.0083620079707365
284,4.235,0.0154158610645522
285,4.242,0.0311568025326505
286,4.250,0.132820802952513
287,4.257,0.478866934211755
288,4.265,0.31578623730987
289,4.273,0.0760178982220256
290,4.280,0.0235977039923594
291,4.288,0.0239619507095859
292,4.295,0.0240050336546342
293,4.303,0.03403552658815
294,4.310,0.0293943184170386
295,4.318,0.0319792951199361
296,4.325,0.0183180849082598
297,4.333,0.00561644938174995
298,4.340,0.0209304780307334
299,4.348,0.0187254145705345
300,4.355,0.0162971031223581
301,4.363,0.0183180849082598
302,4.371,0.0113308145477006
303,4.378,0.00840117428441676
304,4.386,0.00641935881219537
305,4.393,0.00534228518598809
306,4.401,0.0150437810845896
307,4.408,0.0251956895905142
308,4.416,0.129906829214702
309,4.423,0.154902770605447
310,4.431,0.0341138592155105
311,4.438,0.0105357383799912
312,4.446,0.0114874798024216
313,4.453,0.0157096084171541
314,4.461,0.013465378643275
315,4.468,0.00233431229534377
316,4.476,0
317,4.484,0.0033604697137667
318,4.491,0.0052247862449473
319,4.499,0.00124548877503242
320,4.506,0.00730451750136935
321,4.514,0.0144484531166496
322,4.521,0.000144915360616979
323,4.529,0.0104613223839987
324,4.536,0.0150163646650135
325,4.544,0.0201863180708084
326,4.551,0.00992474388657905
327,4.559,0.0103438234429579
328,4.566,0.013324379914026
329,4.574,0.00559686622490981
330,4.582,0.0108764853090095
331,4.589,0.0120279749312093
332,4.597,0.0125371370090527
333,4.604,0.0128308843616547
334,4.612,0.0304439756236697
335,4.619,0.0477359031135065
336,4.627,0.0269934233884384
337,4.634,0.0181457531280666
338,4.642,0.0133674628590743
339,4.649,0.0148205330966121
340,4.657,0.0113817307554849
341,4.664,0.0103790731252701
342,4.672,0.0155333600055929
343,4.679,0.019085744656393
344,4.687,0.0144445364852816
345,4.695,0.022054551233357
346,4.702,0.0102459076587572
347,4.710,0.0129092169890152
348,4.717,0.0126585525814615
349,4.725,0.0111193164538271
350,4.732,0.0211968089637592
351,4.740,0.022649879201297
352,4.747,0.0132538805494015
353,4.755,0.0204408991097301
354,4.762,0.0164890180593914
355,4.770,0.0194147416913072
356,4.777,0.0106454040582959
357,4.785,0.0157448580994664
358,4.792,0.0151730299197345
359,4.800,0.00876933763301125
360,4.808,0.0199121538750465
361,4.815,0.0198181547222139
362,4.823,0.0195479071578201
363,4.830,0.0153610282253998
364,4.838,0.0189290794016719
365,4.845,0.0254150209471237
366,4.853,0.0162540201773098
367,4.860,0.00976416200048997
368,4.868,0.0183024183827877
369,4.875,0.0154941936919127
370,4.883,0.0134888784314831
371,4.890,0.0142369550227762
372,4.898,0.0164929346907594
373,4.906,0.0164381018516071
374,4.913,0.113308145477006
375,4.921,0.339763854544928
376,4.928,0.229792678993481
377,4.936,0.0460556682566232
378,4.943,0.0140215402975347
379,4.951,0.0251212735945217
380,4.958,0.0642092546474258
381,4.966,0.0499096335227612
382,4.973,0.0283994940495599
383,4.981,0.020722896568228
384,4.988,0.016426351957503
385,4.996,0.0148401162534523
386,5.003,0.0147226173124115
387,5.011,0.0240598664937866
388,5.019,0.0256931017742536
389,5.026,0.0327939544444856
390,5.034,0.0250586074926333
391,5.041,0.032555039931036
392,5.049,0.686992808477314
393,5.056,8.4950755214652
394,5.064,26.752010064176
395,5.071,43.6398077795657
396,5.079,8.13346078051805
397,5.086,0.474178726464228
398,5.094,0.299242386411326
399,5.101,0.220921508944901
400,5.109,0.181911860519357
401,5.117,0.144108534555166
402,5.124,0.11986850301845
403,5.132,0.114620216985294
404,5.139,0.0989889411955008
405,5.147,0.0936192395899365
406,5.154,0.0826135054457822
407,5.162,0.078446209670202
408,5.169,0.0701037848563057
409,5.177,0.0764448110411405
410,5.184,0.0681572190663965
411,5.192,0.0578251455175427
412,5.199,0.0559804121432022
413,5.207,0.0590314679788948
414,5.214,0.0460165019429429
415,5.222,0.0512569547133623
416,5.230,0.0517152005834214
417,5.237,0.0437096060671753
418,5.245,0.0600419588718457
419,5.252,0.0813758499334858
420,5.260,0.0458285036372776
421,5.267,0.0350616840065729
422,5.275,0.0291436540094849
423,5.282,0.0388373166453504
424,5.290,0.0382615718342505
425,5.297,0.0343762735171683
426,5.305,0.0399104736401897
427,5.312,0.0335106979848344
428,5.320,0.0434824414478298
429,5.328,0.0263706790009222
430,5.335,0.0425346166567674
431,5.343,0.0408308820116759
432,5.350,0.0348736857009076
433,5.358,0.0426638654919123
434,5.365,0.0346778541325063
435,5.373,0.0299230636517222
436,5.380,0.0372119146276194
437,5.388,0.0311763856894906
438,5.395,0.0408152154862038
439,5.403,0.0366440030792556
440,5.410,0.0208364788779008
441,5.418,0.0387942337003021
442,5.425,0.224105730247106
443,5.433,0.748076591293054
444,5.441,0.434240836404462
445,5.448,0.138965997568947
446,5.456,0.0884140365018294
447,5.463,0.0764526443038765
448,5.471,0.068372633791638
449,5.478,0.0597599614133478
450,5.486,0.0576332305805094
451,5.493,0.0531134379818069
452,5.501,0.0604218721145442
453,5.508,0.0539163474122523
454,5.516,0.0547819229445861
455,5.523,0.0432787766166924
456,5.531,0.0799815291664684
457,5.539,0.0693870413159568
458,5.546,0.0403569696161447
459,5.554,0.047802485846763
460,5.561,0.0361661740523564
461,5.569,0.0316463814536538
462,5.576,0.0391506471547925
463,5.584,0.0437252725926474
464,5.591,0.0387981503316701
465,5.599,0.0467449953773958
466,5.606,0.0329819527501508
467,5.614,0.0330328689579352
468,5.621,0.0268406747650853
469,5.629,0.0405998007609623
470,5.636,0.03107846990529
471,5.644,0.0273498368429288
472,5.652,0.0371061655806827
473,5.659,0.0418374562732587
474,5.667,0.0447396801169663
475,5.674,0.0705659473577328
476,5.682,0.0649573312387189
477,5.689,0.0598657104602845
478,5.697,0.137904590468212
479,5.704,0.165309260150293
480,5.712,0.0759826485397134
481,5.719,0.0916256742236111
482,5.727,0.134512787703501
483,5.734,0.112869482763787
484,5.742,0.0740674158007484
485,5.749,0.0489539754689628
486,5.757,0.0634180951110845
487,5.765,0.214568732865962
488,5.772,0.214474733713129
489,5.780,0.0954483064388049
490,5.787,0.0481197329875731
491,5.795,0.0406428837060106
492,5.802,0.0539750968827727
493,5.810,0.133141966724692
494,5.817,0.21996976752247
495,5.825,0.146693511258063
496,5.832,0.0757476506576318
497,5.840,0.0450725937832485
498,5.847,0.0527844409468926
499,5.855,0.0407407994902113
500,5.863,0.0456052556493001
501,5.870,0.0528823567310933
502,5.878,0.0393073124095136
503,5.885,0.0324649574095713
504,5.893,0.0558903296217376
505,5.900,0.0409209645331405
506,5.908,0.0389038993786069
507,5.915,0.0258536836603427
508,5.923,0.0371022489493147
509,5.930,0.0348893522263797
510,5.938,0.0312899679991634
511,5.945,0.0333148664164331
512,5.953,0.0269895067570704
513,5.960,0.037893408485656
514,5.968,0.0415515421833927
515,5.976,0.0587925534654452
516,5.983,0.0416377080734893
517,5.991,0.0283720776299837
518,5.998,0.0238092020862329
519,6.006,0.0247570268772953
520,6.013,0.0323474584685306
521,6.021,0.0337652790237561
522,6.028,0.120029084904539
523,6.036,0.261771974113417
524,6.043,0.148867241667318
525,6.051,0.0724929299908018
526,6.058,0.0532387701855837
527,6.066,0.0425972827586558
528,6.074,0.0435451075497182
529,6.081,0.0368985841181773
530,6.089,0.0387981503316701
531,6.096,0.0417865400654743
532,6.104,0.0338005287060684
533,6.111,0.0393778117741381
534,6.119,0.0347091871834505
535,6.126,0.0442031016195467
536,6.134,0.0449511782108397
537,6.141,0.0636570096245341
538,6.149,0.044696597171918
539,6.156,0.043666523122127
540,6.164,0.0411716289406942
541,6.171,0.0475635713333134
542,6.179,0.0638841742438796
543,6.187,0.0523692780218818
544,6.194,0.0299269802830902
545,6.202,0.0376427440781023
546,6.209,0.0393817284055061
547,6.217,0.0346112713992498
548,6.224,0.0357000949195612
549,6.232,0.0416768743871696
550,6.239,0.0452527588261777
551,6.247,0.036710585812512
552,6.254,0.0431299446247074
553,6.262,0.0403217199338324
554,6.269,0.0638215081419912
555,6.277,0.0670174793383008
556,6.285,0.0490205582022192
557,6.292,0.0345956048737777
558,6.300,0.0325354567741958
559,6.307,0.0367340856007202
560,6.315,0.029155403903589
561,6.322,0.0600772085541579
562,6.330,0.164890180593914
563,6.337,0.179091885934378
564,6.345,0.109556012626436
565,6.352,0.077114555005073
566,6.360,0.0653685775323617
567,6.367,0.0548876719915228
568,6.375,0.0500388823579061
569,6.382,0.0482763982422942
570,6.390,0.0404823018199215
571,6.398,0.026049515228744
572,6.405,0.0431064448364992
573,6.413,0.061126865760789
574,6.420,0.0840078262127996
575,6.428,0.0602730401225592
576,6.435,0.0526786918999559
577,6.443,0.0456875049080287
578,6.450,0.0401611380477433
579,6.458,0.0379560745875444
580,6.465,0.0374194960901248
581,6.473,0.0536539331105945
582,6.480,0.219875768369638
583,6.488,0.528796150891357
584,6.495,0.329185033219888
585,6.503,0.119508172932591
586,6.511,0.140086154140202
587,6.518,0.270447312593595
588,6.526,0.236196371280204
589,6.533,0.157366331735935
590,6.541,0.129256668407609
591,6.548,0.117193443794088
592,6.556,0.106841787088394
593,6.563,0.0890250309952415
594,6.571,0.077846965070894
595,6.578,0.0896203589631815
596,6.586,0.0925969988028816
597,6.593,0.0780897962157116
598,6.601,0.06068820304757
599,6.609,0.0632261801740512
600,6.616,0.0652393286972168
601,6.624,0.0564856575896776
602,6.631,0.060837035039555
603,6.639,0.0744786620943912
604,6.646,0.107699529357992
605,6.654,0.121768069231943
606,6.661,0.0848577352196613
607,6.669,0.0870706319425963
608,6.676,0.0563524921231647
609,6.684,0.0520559475124397
610,6.691,0.0644990853686598
611,6.699,0.0557336643670166
612,6.706,0.0461653339349279
613,6.714,0.04677632842834
614,6.722,0.0633867620601403
615,6.729,0.0633201793268838
616,6.737,0.0623880210612935
617,6.744,0.0682786346388053
618,6.752,0.0475557380705773
619,6.759,0.0546761738976494
620,6.767,0.0767150586055343
621,6.774,0.209375279671959
622,6.782,0.198455711417901
623,6.789,0.0932040766649257
624,6.797,0.0552362521832772
625,6.804,0.0697199549822391
626,6.812,0.0516642843756371
627,6.820,0.0475674879646814
628,6.827,0.0567950714677517
629,6.835,0.0499683829932816
630,6.842,0.0399339734283978
631,6.850,0.0388412332767184
632,6.857,0.0415123758697125
633,6.865,0.0389156492727109
634,6.872,0.0455151731278355
635,6.880,0.0323004588921142
636,6.887,0.0818380124349129
637,6.895,1.29549632433938
638,6.902,9.98544383952073
639,6.910,27.5031925441439
640,6.917,49.29497697902
641,6.925,36.4622087176773
642,6.933,1.6456980014801
643,6.940,0.95704062467137
644,6.948,0.717319285159942
645,6.955,0.556529817608352
646,6.963,0.428796718802905
647,6.970,0.377951010383186
648,6.978,0.337445208775056
649,6.985,0.485881620991891
650,6.993,2.03967586742124
651,7.000,3.47561084272395
652,7.008,1.46866234701393
653,7.015,0.686883142799009
654,7.023,0.484937712832196
655,7.031,0.413866520027988
656,7.038,0.369491086628248
657,7.046,0.310498784963034
658,7.053,0.26674609595081
659,7.061,0.237915772450767
660,7.068,0.23588695740213
661,7.076,0.216421299503038
662,7.083,0.180262958713418
663,7.091,0.18436758838711
664,7.098,0.1663863337765
665,7.106,0.1575543300416
666,7.113,0.165892838224129
667,7.121,0.168054818739279
668,7.128,0.153441867105173
669,7.136,0.153105036807522
670,7.144,0.200981938650278
671,7.151,0.231907659932215
672,7.159,0.200429693627386
673,7.166,0.17382793337575
674,7.174,0.149948231924893
675,7.181,0.250668324185062
676,7.189,2.06229049694023
677,7.196,8.93528138744316
678,7.204,8.52622057410374
679,7.211,1.70732619605599
680,7.219,0.462111585219338
681,7.226,0.314826662624703
682,7.234,0.258873666901077
683,7.242,0.219578104385668
684,7.249,0.192212601017267
685,7.257,0.163108113321462
686,7.264,0.148256247173906
687,7.272,0.152243377906557
688,7.279,0.144351365699983
689,7.287,0.136467186756146
690,7.294,0.126291778462013
691,7.302,0.111279330428368
692,7.309,0.105897878928699
693,7.317,0.0902235201938576
694,7.324,0.0859152256890285
695,7.332,0.0920800034623021
696,7.339,0.104025729134783
697,7.347,0.0851828156232075
698,7.355,0.0906660995384446
