#"+EI TIC Scan TOL-PA.d "
#Point,X(Minutes),Y(Counts)
0,2.095,0.0993404773597183
1,2.102,0.0878226958490214
2,2.110,0.0862079084708703
3,2.117,0.0790127885570701
4,2.125,0.0787705704503474
5,2.133,0.0802518273337668
6,2.140,0.0801586665234889
7,2.148,0.078519036262597
8,2.155,0.0722306815688355
9,2.163,0.057741070210272
10,2.170,0.0633835099527731
11,2.178,0.0687619940661532
12,2.185,0.0665043970970843
13,2.193,0.0660013287215834
14,2.200,0.0728859126011237
15,2.208,0.077003620415409
16,2.215,0.0703985189667025
17,2.223,0.063414563556199
18,2.230,0.116494487892231
19,2.238,0.117882583965373
20,2.246,0.0824597385373542
21,2.253,0.0574646931397808
22,2.261,0.0658771143078795
23,2.268,0.069985506041137
24,2.276,0.0598371884415259
25,2.283,0.0689762639297925
26,2.291,0.067333528308558
27,2.298,0.0524650629881976
28,2.306,0.0531202940204858
29,2.313,0.0506204789446942
30,2.321,0.0455245826224905
31,2.328,0.0419534182285025
32,2.336,0.052368796817577
33,2.344,0.0624674286517066
34,2.351,0.0649858758895538
35,2.359,0.0430433997087545
36,2.366,0.0592192217333488
37,2.374,0.0575826968327995
38,2.381,0.0398883536006746
39,2.389,0.0438073183530336
40,2.396,0.0373295366783737
41,2.404,0.0418851003009653
42,2.411,0.051024175789232
43,2.419,0.0586478354303107
44,2.426,0.0387673185169967
45,2.434,0.0757894245214531
46,2.441,0.344409304876888
47,2.449,0.301151635304494
48,2.457,0.0621755247795023
49,2.464,0.0567504602609832
50,2.472,0.0409690189998988
51,2.479,0.0419099431837061
52,2.487,0.0398107195921097
53,2.494,0.0381710893312178
54,2.502,0.0397392963042299
55,2.509,0.068755783345468
56,2.517,0.0693395910898765
57,2.524,0.074854711058331
58,2.532,0.0704419940114989
59,2.539,0.0353731596625368
60,2.547,0.0355408491210371
61,2.555,0.0309418104536491
62,2.562,0.0412143424669641
63,2.570,0.03737301172317
64,2.577,0.0432669856534215
65,2.585,0.0354042132659627
66,2.592,0.0459189633860005
67,2.600,0.0322212189147995
68,2.607,0.0299884648284714
69,2.615,0.0391710153615344
70,2.622,0.03879526676008
71,2.630,0.0425744902970221
72,2.637,0.0604893141134715
73,2.645,0.062371162481086
74,2.652,0.0447637693385539
75,2.660,0.0531327154618562
76,2.668,0.0367426235736226
77,2.675,0.0451239911382953
78,2.683,0.0422360060196789
79,2.690,0.032836080262634
80,2.698,0.0340005903911083
81,2.705,0.033863954536034
82,2.713,0.034606135657915
83,2.720,0.0376649155953743
84,2.728,0.0335285756190334
85,2.735,0.0379257658641525
86,2.743,0.044183066954488
87,2.750,0.0540984825284043
88,2.758,0.0728921233218089
89,2.765,0.0593465415073953
90,2.773,0.0447265050144427
91,2.781,0.0512632885356121
92,2.788,0.0470617359920766
93,2.796,0.0882512355762999
94,2.803,0.0660820680904909
95,2.811,0.043534046642885
96,2.818,0.0269421063323825
97,2.826,0.0519092034868725
98,2.833,0.0626382234705495
99,2.841,0.0333484647191627
100,2.848,0.0312927161723627
101,2.856,0.0356464313726854
102,2.863,0.0425341206125684
103,2.871,0.0479094993656059
104,2.879,0.0513657654269178
105,2.886,0.0364165607376498
106,2.894,0.0436737878583019
107,2.901,0.0414720873753997
108,2.909,0.0389784830202933
109,2.916,0.0458444347377781
110,2.924,0.0580267633617911
111,2.931,0.0437607379478947
112,2.939,0.04993419430898
113,2.946,0.0544990740125994
114,2.954,0.0486206268840609
115,2.961,0.0505956360619534
116,2.969,0.0800499789114979
117,2.976,2.36600509862904
118,2.984,21.5401239572899
119,2.992,59.9182383464677
120,2.999,100
121,3.007,42.8356976822398
122,3.014,0.197184171034304
123,3.022,0.0833975573608188
124,3.029,0.0718797758501219
125,3.037,0.0647591845845441
126,3.044,0.0476672812588833
127,3.052,0.0530178171291801
128,3.059,0.0833230287125965
129,3.067,0.0735939347592361
130,3.074,0.0515334548854181
131,3.082,0.0557846931944351
132,3.090,0.0400839913022583
133,3.097,0.0419503128681599
134,3.105,0.0437483165065243
135,3.112,0.0460338617186766
136,3.120,0.0370593703285676
137,3.127,0.0599086117294056
138,3.135,0.0758360049265921
139,3.142,0.0861364851829905
140,3.150,0.0871705701770757
141,3.157,0.0378419211349024
142,3.165,0.0381214035657362
143,3.172,0.0457574846481853
144,3.180,0.0449159319953412
145,3.187,0.0454376325328977
146,3.195,0.0515086120026773
147,3.203,0.0506422164670924
148,3.210,0.034575082054489
149,3.218,0.025693751474658
150,3.225,0.033245987827857
151,3.233,0.0326311264800225
152,3.240,0.0281004057401716
153,3.248,0.0224921249614392
154,3.255,0.0150144172564626
155,3.263,0.0446954514110167
156,3.270,0.0604272069066195
157,3.278,0.0455494255052313
158,3.285,0.0214984096518077
159,3.293,0.0225697589700041
160,3.301,0.0289450637533584
161,3.308,0.0516980389835758
162,3.316,0.0622314212656691
163,3.323,0.0573529001674472
164,3.331,0.038478520005135
165,3.338,0.0286624759621819
166,3.346,0.0265694630912707
167,3.353,0.00893722706599779
168,3.361,0.0226163393751431
169,3.368,0.0138126428038771
170,3.376,0.00640325302643761
171,3.383,0.0194706093480911
172,3.391,0.00711438054489261
173,3.398,0.0104868018769543
174,3.406,0.0266129381360671
175,3.414,0.0191756001155442
176,3.421,0.0127940846115048
177,3.429,0.0252590010266942
178,3.436,0.0168155262551696
179,3.444,0.00877574832818268
180,3.451,0.0425775956573647
181,3.459,0.131521326590064
182,3.466,0.23520930842942
183,3.474,0.0950581854472753
184,3.481,0.0266005166946967
185,3.489,0.0532848781186435
186,3.496,0.0924931578042891
187,3.504,0.0422825864248179
188,3.512,0.0129897223130885
189,3.519,0.0145765614481562
190,3.527,0.0120301659672257
191,3.534,0.00871674648167331
192,3.542,0.0108873933611495
193,3.549,0.0103563767425652
194,3.557,0.0272340102045867
195,3.564,0.0233709419383945
196,3.572,0.0279575591644121
197,3.579,0.0170919033256608
198,3.587,0.0128592971786994
199,3.594,0.00433197767792457
200,3.602,0.0159118663954735
201,3.609,0.0128127167735604
202,3.617,0.0103470606615374
203,3.625,0.014346764782804
204,3.632,0.0127226613236251
205,3.640,0.01682794769654
206,3.647,0.0213027719502241
207,3.655,0.0194116075015817
208,3.662,0.015753493018001
209,3.670,0.00738454689469866
210,3.677,0
211,3.685,0.00880990729195126
212,3.692,0.0101824765633797
213,3.700,0.0149367832478976
214,3.707,0.0199146758770826
215,3.715,0.0103160070581114
216,3.722,0.0273520138976055
217,3.730,0.265958586541828
218,3.738,0.660562935996474
219,3.745,0.209701878575318
220,3.753,0.100796891360397
221,3.760,0.0687526779851255
222,3.768,0.0575764861121143
223,3.775,0.051309868940751
224,3.783,0.0595918649744606
225,3.790,0.0491143791785341
226,3.798,0.0440805900631823
227,3.805,0.0456115327120832
228,3.813,0.036074971099964
229,3.820,0.0321001098614382
230,3.828,0.0418975217423357
231,3.836,0.0310908677500938
232,3.843,0.0375065422179018
233,3.851,0.0303455812678702
234,3.858,0.0269141580892991
235,3.866,0.02702284570129
236,3.873,0.0215356739759189
237,3.881,0.0280072449298937
238,3.888,0.0335658399431446
239,3.896,0.0198184097064621
240,3.903,0.0270352671426604
241,3.911,0.0214921989311225
242,3.918,0.0317492041427246
243,3.926,0.0184334189936633
244,3.933,0.0242777071584332
245,3.941,0.0149460993289254
246,3.949,0.0154926427492227
247,3.956,0.0233864687401075
248,3.964,0.0344819212442111
249,3.971,0.0921143038424922
250,3.979,0.0548872440554242
251,3.986,0.0204922729008059
252,3.994,0.0242466535550072
253,4.001,0.0199519402011938
254,4.009,0.0206320141162228
255,4.016,0.0205295372249171
256,4.024,0.0127288720443103
257,4.031,0.0177595557993194
258,4.039,0.0157503876576584
259,4.047,0.0189395927295068
260,4.054,0.0162658774745297
261,4.062,0.0213617737967334
262,4.069,0.0196693524100174
263,4.077,0.0171074301273738
264,4.084,0.0339353778239138
265,4.092,0.0268986312875861
266,4.099,0.0395778175664148
267,4.107,0.0286407384397837
268,4.114,0.0154367462630559
269,4.122,0.0198401472288603
270,4.129,0.0175018108908838
271,4.137,0.0231318291920144
272,4.144,0.012784768530477
273,4.152,0.0195389272756282
274,4.160,0.0169894264343551
275,4.167,0.0055337521305101
276,4.175,0.0156323839646396
277,4.182,0.0143498701431466
278,4.190,0.0144461363137671
279,4.197,0.0247093522460543
280,4.205,0.0202190011906573
281,4.212,0.00894654314702558
282,4.220,0.0197314596168693
283,4.227,0.00403386308503514
284,4.235,0.0170266907584663
285,4.242,0.0167627351293454
286,4.250,0.10175644770626
287,4.258,0.402560282652383
288,4.265,0.333925608360276
289,4.273,0.0645604415226178
290,4.280,0.0221784835668368
291,4.288,0.0205947497921117
292,4.295,0.0233585204970241
293,4.303,0.0165422545450209
294,4.310,0.0222747497374573
295,4.318,0.0135983729402378
296,4.325,0.0184675779574318
297,4.333,0.0230976702282459
298,4.340,0.013225729699126
299,4.348,0.01074454678539
300,4.355,0.0163031417986409
301,4.363,0.0138095374435345
302,4.371,0.00733796648955969
303,4.378,0.0169304245878457
304,4.386,0.0115426243934377
305,4.393,0.0141076520364239
306,4.401,0.00666099793487326
307,4.408,0.0296624019924986
308,4.416,0.111426539813111
309,4.423,0.150206279771478
310,4.431,0.0399846197712952
311,4.438,0.0266408863791505
312,4.446,0.00296251376683874
313,4.453,0.00675726410549381
314,4.461,0.0113252491694558
315,4.468,0.0148591492393327
316,4.476,0.0112072454764371
317,4.484,0.0105892787682601
318,4.491,0.00182905724179037
319,4.499,0.00614550811800195
320,4.506,0.00735349329127268
321,4.514,0.0151852120753055
322,4.521,0.0130921992043943
323,4.529,0.0211940843382331
324,4.536,0.015374639056204
325,4.544,0.00788450990985698
326,4.551,0.0174956001701986
327,4.559,0.00444066528991551
328,4.566,0.0163186686003539
329,4.574,0.0148995189237864
330,4.582,0.00443134920888772
331,4.589,0.00163341954020668
332,4.597,0.00645914951260438
333,4.604,0.00718890919311497
334,4.612,0.0123282805601151
335,4.619,0.0148933082031012
336,4.627,0.0165360438243357
337,4.634,0.012924509745894
338,4.642,0.0100675782307036
339,4.649,0.00940303111738753
340,4.657,0.0168807388223641
341,4.664,0.0133313119507743
342,4.672,0.00973530467404554
343,4.679,0.000866395535584914
344,4.687,0.00337863205274691
345,4.695,0.0146728276187768
346,4.702,0.0119028461931791
347,4.710,0.0044655081726563
348,4.717,0.0168807388223641
349,4.725,0.0194519771860355
350,4.732,0.0108346022353253
351,4.740,0.0212934558691963
352,4.747,0.00902728251593314
353,4.755,0.00343452853891367
354,4.762,0.0105489090838063
355,4.770,0.00847763373529325
356,4.777,0.0160950826556868
357,4.785,0.00973219931370294
358,4.793,0.0106172270113434
359,4.800,0.0118003693018734
360,4.808,0.00154646945061393
361,4.815,0.00551822532879711
362,4.823,0.0147877259514529
363,4.830,0.00649330847637296
364,4.838,0.0165360438243357
365,4.845,0.0109774488110848
366,4.853,0.00778513837889384
367,4.860,0.00882543409366425
368,4.868,0.00939371503635973
369,4.875,0.00620140460416872
370,4.883,0.00924155237957242
371,4.890,0.0470399984696784
372,4.898,0.299220101171398
373,4.906,0.435849745525036
374,4.913,0.127127241705288
375,4.921,0.0616382974402328
376,4.928,0.055592160853194
377,4.936,0.0235634742796356
378,4.943,0.0338080580498672
379,4.951,0.0385313111309592
380,4.958,0.0349166716921748
381,4.966,0.0386058397791816
382,4.973,0.0233709419383945
383,4.981,0.0213928274001594
384,4.988,0.0212810344278259
385,4.996,0.0266781507032616
386,5.004,0.0181912008869406
387,5.011,0.0122071715067538
388,5.019,0.0290506460050067
389,5.026,0.0256689085919172
390,5.034,0.0176974485924675
391,5.041,0.0174179661616336
392,5.049,0.0204487978560095
393,5.056,0.0133406280318021
394,5.064,0.0131698332129592
395,5.071,0.00883164481434945
396,5.079,0.00615792955937235
397,5.086,0.0126481326754027
398,5.094,0.0183992600298947
399,5.101,0.019340184213702
400,5.109,0.0044655081726563
401,5.117,0.00937818823464674
402,5.124,0.0116606280864565
403,5.132,0.00460214402773062
404,5.139,0.0087478000850993
405,5.147,0.0114805171865858
406,5.154,0.0142163396484148
407,5.162,0.0138250642452474
408,5.169,0.0124121252893652
409,5.177,0.0119059515535217
410,5.184,0.00509900168254634
411,5.192,0.0109401844869737
412,5.199,0.00637530478335423
413,5.207,0.00326062835972817
414,5.215,0.0196600363289896
415,5.222,0.0107724950284734
416,5.230,0.0130363027182275
417,5.237,0.0187191121451823
418,5.245,0.0239330121604048
419,5.252,0.0127009238012269
420,5.260,0.0151075780667405
421,5.267,0.0114028831780208
422,5.275,0.0103129016977688
423,5.282,0.00431024015552638
424,5.290,0.0113221438091133
425,5.297,0.0134089459593393
426,5.305,0.0131108313664498
427,5.312,0.0126232897926619
428,5.320,0.0150361547788608
429,5.328,0.0128344542959586
430,5.335,0.00903659859696093
431,5.343,0.00780998126163462
432,5.350,0.011834528265642
433,5.358,0.00569833622866781
434,5.365,0.00627282789204848
435,5.373,0.0030370424150611
436,5.380,0.00883164481434945
437,5.388,0.0197966721840639
438,5.395,0.0165484652657061
439,5.403,0.0201506832631201
440,5.410,0.00694669108639231
441,5.418,0.00650883527808595
442,5.425,0.0168900549033919
443,5.433,0.00842794796981168
444,5.441,0.013148095690561
445,5.448,0.00501205159295359
446,5.456,0.0236193707658024
447,5.463,0.0154802213078523
448,5.471,0.0292555997876182
449,5.478,0.0204394817749817
450,5.486,0.0211630307348071
451,5.493,0.0182377812920796
452,5.501,0.0166292046346137
453,5.508,0.00886580377811803
454,5.516,0.013511422850645
455,5.523,0.0103408499408522
456,5.531,0.0104029571477042
457,5.539,0.00973219931370294
458,5.546,0.0130580402406257
459,5.554,0.016008132566094
460,5.561,0.00749944522737479
461,5.569,0.00673863194343822
462,5.576,0.00689079460022554
463,5.584,0.0140548609105997
464,5.591,0.0158124948645103
465,5.599,0.0170142693170959
466,5.606,0.00741249513778204
467,5.614,0.0214953042914651
468,5.621,0.0325690192731705
469,5.629,0.0277246571387173
470,5.636,0.0193960806998687
471,5.644,0.0161509791418535
472,5.652,0.0184085761109225
473,5.659,0.0214611453276966
474,5.667,0.0123500180825133
475,5.674,0.0114339367814468
476,5.682,0.0164056186899466
477,5.689,0.00956761521554524
478,5.697,0.018551422686682
479,5.704,0.00892791098496999
480,5.712,0.0230604059041347
481,5.719,0.0229703504541993
482,5.727,0.0304604796005463
483,5.734,0.0221256924410126
484,5.742,0.0165329384639931
485,5.750,0.0231100916696162
486,5.757,0.0144492416741097
487,5.765,0.0103532713822226
488,5.772,0.0196755631307026
489,5.780,0.0133841030765985
490,5.787,0.0176229199442451
491,5.795,0.00870121967996032
492,5.802,0.008912384183257
493,5.810,0.0144865059982209
494,5.817,0.0180235114284403
495,5.825,0.0133623655542003
496,5.832,0.00543438059954695
497,5.840,0.0117382620950214
498,5.847,0.00599334546121464
499,5.855,0.0101110532754999
500,5.863,0.0128065060528752
501,5.870,0.0024936043551064
502,5.878,0.00788140454951438
503,5.885,0.0104091678683894
504,5.893,0.0163900918882336
505,5.900,0.0111140846661592
506,5.908,0.0183713117868113
507,5.915,0.0171819587755962
508,5.923,0.00610203307320558
509,5.930,0.00567659870626962
510,5.938,0.023228095362635
511,5.945,0.00885338233674764
512,5.953,0.00181042507973478
513,5.961,0.0185917923711358
514,5.968,0.0201786315062035
515,5.976,0.0100085763841942
516,5.983,0.0140579662709423
517,5.991,0.0175763395391061
518,5.998,0.0183123099403019
519,6.006,0.0118221068242716
520,6.013,0.01643356693303
521,6.021,0.0191569679534887
522,6.028,0.0185855816504506
523,6.036,0.0101700551220093
524,6.043,0.0222964872598555
525,6.051,0.024889463145925
526,6.058,0.0154243248216856
527,6.066,0.0165080955812523
528,6.074,0.0197687239409805
529,6.081,0.0169304245878457
530,6.089,0.00865153391447875
531,6.096,0.00937818823464674
532,6.104,0.0120643249309942
533,6.111,0.0217623652809286
534,6.119,0.0284233632158019
535,6.126,0.0392859136942106
536,6.134,0.0484218838221347
537,6.141,0.0337552669240431
538,6.149,0.0245168199048133
539,6.156,0.0253801100800556
540,6.164,0.0151821067149629
541,6.171,0.0191165982690349
542,6.179,0.0258862838158991
543,6.187,0.0193122359706186
544,6.194,0.0154150087406578
545,6.202,0.0205543801076579
546,6.209,0.0197625132202953
547,6.217,0.0195575594376838
548,6.224,0.0149585207702958
549,6.232,0.0269483170530677
550,6.239,0.0269669492151233
551,6.247,0.0176477628269859
552,6.254,0.0150392601392034
553,6.262,0.0116792602485121
554,6.269,0.0197594078599527
555,6.277,0.00691563748296632
556,6.285,0.0130890938440517
557,6.292,0.0186880585417563
558,6.300,0.021395932760502
559,6.307,0.0129462472682921
560,6.315,0.00691874284330892
561,6.322,0.0198401472288603
562,6.330,0.00693116428467931
563,6.337,0.00879127512989567
564,6.345,0.0142753414949242
565,6.352,0.0194706093480911
566,6.360,0.0113687242142522
567,6.367,0.0142256557294426
568,6.375,0.0172099070186796
569,6.382,0.00487541573787927
570,6.390,0.0105395930027785
571,6.398,0.0236038439640894
572,6.405,0.00360532335775658
573,6.413,0.0146200364929526
574,6.420,0.0130425134389127
575,6.428,0.0109557112886867
576,6.435,0.0150796298236571
577,6.443,0.0121140106964758
578,6.450,0.027749500021458
579,6.458,0.015374639056204
580,6.465,0.012877929340755
581,6.473,0.0233678365780519
582,6.480,0.00827267995268176
583,6.488,0.0101421068789259
584,6.496,0.0134182620403671
585,6.503,0.0157876519817695
586,6.511,0.0116419959244009
587,6.518,0.011725840653651
588,6.526,0.0187191121451823
589,6.533,0.0164863580588542
590,6.541,0.0157659144593714
591,6.548,0.0133903137972837
592,6.556,0.0233926794607927
593,6.563,0.027510387275078
594,6.571,0.0113159330884281
595,6.578,0.0157783359007418
596,6.586,0.011725840653651
597,6.593,0.019184916196572
598,6.601,0.0124897592979302
599,6.609,0.0165577813467339
600,6.616,0.0151696852735925
601,6.624,0.0152193710390741
602,6.631,0.00269545277737529
603,6.639,0.0103625874632504
604,6.646,0.0177005539528101
605,6.654,0.025029204361342
606,6.661,0.0155858035595007
607,6.669,0.0160826612143164
608,6.676,0.0244888716617299
609,6.684,0.012846875737329
610,6.691,0.00958935273794342
611,6.699,0.00930365958642438
612,6.707,0.0147287241049435
613,6.714,0.014570350727471
614,6.722,0.0211599253744645
615,6.729,0.0137722731194233
616,6.737,0.0103905357063338
617,6.744,0.0157752305403992
618,6.752,0.0117382620950214
619,6.759,0.0187843247123769
620,6.767,0.0102601105719446
621,6.774,0.0152069495977037
622,6.782,0.0176881325114397
623,6.789,0.012421441370393
624,6.797,0.00929434350539659
625,6.804,0.0175918663408191
626,6.812,0.0175794448994487
627,6.820,0.0169521621102439
628,6.827,0.00398417731955357
629,6.835,0.0144958220792487
630,6.842,0.0201879475872313
631,6.850,0.0199177812374252
632,6.857,0.00238802210345806
633,6.865,0.0162130863487055
634,6.872,0.0209456555108253
635,6.880,0.0157969680627973
636,6.887,0.0128127167735604
637,6.895,0.0173931232788928
638,6.902,0.0147784098704251
639,6.910,0.0312430304068811
640,6.918,0.0170142693170959
641,6.925,0.0257962283659637
642,6.933,0.0169397406688735
643,6.940,0.0182781509765334
644,6.948,0.0145361917637024
645,6.955,0.0165577813467339
646,6.963,0.0187905354330621
647,6.970,0.0186104245331914
648,6.978,0.0113687242142522
649,6.985,0.0122785947946335
650,6.993,0.0197997775444065
651,7.000,0.0223958587908186
652,7.008,0.0169397406688735
653,7.015,0.0311063945518068
654,7.023,0.0647094988190625
655,7.031,0.104979811741877
656,7.038,0.0748516056979884
657,7.046,0.0506981129532592
658,7.053,0.0365097215479277
659,7.061,0.0259328642210381
660,7.068,0.0287960064569137
661,7.076,0.0298580396940823
662,7.083,0.0333080950347089
663,7.091,0.0222623282960869
664,7.098,0.0312119768034551
665,7.106,0.0191165982690349
666,7.113,0.0257931230056211
667,7.121,0.0239299068000622
668,7.128,0.0231318291920144
669,7.136,0.0240882801775347
670,7.144,0.0122382251101797
671,7.151,0.0392734922528402
672,7.159,0.0651473546273689
673,7.166,0.0660634359284354
674,7.174,0.0668770403381961
675,7.181,0.0376059137488649
676,7.189,0.0306809601848708
677,7.196,0.0260136035899456
678,7.204,0.0255571156195837
679,7.211,0.0383232519880051
680,7.219,0.0546916063538405
681,7.226,0.131943655596657
682,7.234,0.128201696383827
683,7.242,0.105054340390099
684,7.249,0.0806306812955638
685,7.257,0.0598371884415259
686,7.264,0.0442172259182566
687,7.272,0.0411957103049085
688,7.279,0.0452823645157678
689,7.287,0.0342055441737198
690,7.294,0.0464127156804736
691,7.302,0.0304387420781481
692,7.309,0.0362737141618903
