#"+EI TIC Scan TOL-PP.d "
#Point,X(Minutes),Y(Counts)
0,2.095,0.0743456028374841
1,2.102,0.070935032395759
2,2.110,0.0709902643057465
3,2.117,0.0540444239227214
4,2.125,0.0463257645019751
5,2.132,0.0547451787806872
6,2.140,0.0641449594616767
7,2.147,0.0571305068932703
8,2.155,0.0437333167269391
9,2.163,0.0469436714949597
10,2.170,0.0480068857622181
11,2.178,0.0480655696665798
12,2.185,0.0400776546846446
13,2.193,0.0431326697058255
14,2.200,0.049781210870565
15,2.208,0.0529535937004693
16,2.215,0.0359145494693404
17,2.223,0.036259748906762
18,2.230,0.0941220786073661
19,2.238,0.111444186377181
20,2.245,0.0657743008063065
21,2.253,0.0423421629941301
22,2.261,0.0508789450815656
23,2.268,0.0562744122884648
24,2.276,0.051348416316459
25,2.283,0.0622049386233674
26,2.291,0.0526670781674094
27,2.298,0.0340573764960124
28,2.306,0.0435745249857251
29,2.313,0.0473820747804851
30,2.321,0.045859745261456
31,2.328,0.0434191852388854
32,2.336,0.0442476638886972
33,2.343,0.0422351511685294
34,2.351,0.0419900595679601
35,2.358,0.0405712898801575
36,2.366,0.0549074225162754
37,2.374,0.0475443185160732
38,2.381,0.0399430269040502
39,2.389,0.0354485302288213
40,2.396,0.0368811078941208
41,2.404,0.0261419533959357
42,2.411,0.0323797072301435
43,2.419,0.0666959833042221
44,2.426,0.0287205931934749
45,2.434,0.0484452890477435
46,2.441,0.272904319242373
47,2.449,0.346483579328781
48,2.456,0.0859719198898427
49,2.464,0.0443615797030463
50,2.472,0.0332116378743295
51,2.479,0.0226381791061067
52,2.487,0.030643354059913
53,2.494,0.0425251186959636
54,2.502,0.0509065610365593
55,2.509,0.0751153975829343
56,2.517,0.078712375720867
57,2.524,0.0849018016338358
58,2.532,0.0677868135264743
59,2.539,0.0478239300603847
60,2.547,0.0326351548138355
61,2.554,0.0304224264199632
62,2.562,0.0331495019755936
63,2.569,0.0328284664987916
64,2.577,0.045124470459748
65,2.585,0.033011422200625
66,2.592,0.0321069996745805
67,2.600,0.0248301955337337
68,2.607,0.0295766877982804
69,2.615,0.0255413063748222
70,2.622,0.0458839092220755
71,2.630,0.036915627837863
72,2.637,0.0536025686428218
73,2.645,0.0560949085810056
74,2.652,0.0536819645134288
75,2.660,0.0343956719446855
76,2.667,0.0482968532896523
77,2.675,0.0370157356747153
78,2.682,0.0335948092498675
79,2.690,0.0394148717647952
80,2.698,0.0302463747068782
81,2.705,0.0300703229937932
82,2.713,0.0372849912359041
83,2.720,0.0352552185438652
84,2.728,0.0354002023075823
85,2.735,0.0345751756521447
86,2.743,0.0382791656156782
87,2.750,0.0536439925753124
88,2.758,0.0741868110962702
89,2.765,0.0466675119450224
90,2.773,0.0385277092106217
91,2.780,0.0360733412105544
92,2.788,0.0324383911345052
93,2.796,0.0823093538587998
94,2.803,0.0643486271297554
95,2.811,0.0410683770700445
96,2.818,0.034578627646519
97,2.826,0.0513794842658269
98,2.833,0.0555494934698795
99,2.841,0.0412651407493748
100,2.848,0.0338813247829274
101,2.856,0.0281441101329808
102,2.863,0.0386071050812287
103,2.871,0.0473233908761234
104,2.878,0.0566713916414996
105,2.886,0.0525600663418087
106,2.893,0.0400880106677673
107,2.901,0.061269448147955
108,2.909,0.0680180971495467
109,2.916,0.0541997636695612
110,2.924,0.0464017083782078
111,2.931,0.0529950176329599
112,2.939,0.0468987955680949
113,2.946,0.0434675131601245
114,2.954,0.0482312653965422
115,2.961,0.038227385700065
116,2.969,0.081815718663287
117,2.976,2.125959063282
118,2.984,21.151708904637
119,2.991,61.5614419960867
120,2.999,100
121,3.007,51.4370773399663
122,3.014,0.214047815161995
123,3.022,0.0945466739153946
124,3.029,0.0658916686150298
125,3.037,0.0662368680524514
126,3.044,0.0567266235514871
127,3.052,0.0573445305444717
128,3.059,0.0857302802836476
129,3.067,0.0674726820384206
130,3.074,0.0581799131830319
131,3.082,0.059381207225259
132,3.089,0.0564918879340404
133,3.097,0.0380375260094831
134,3.104,0.0424560788084792
135,3.112,0.0490252241026118
136,3.120,0.0411201569856578
137,3.127,0.0606860610987125
138,3.135,0.0758886443227586
139,3.142,0.0843840024777035
140,3.150,0.0884780678055233
141,3.157,0.0428772221221336
142,3.165,0.0417863918998814
143,3.172,0.0574273784094529
144,3.180,0.0514830440970534
145,3.187,0.0363736647211111
146,3.195,0.0598092545276617
147,3.202,0.055701381222345
148,3.210,0.0389108805861597
149,3.218,0.0273294394606659
150,3.225,0.0329527382962633
151,3.233,0.0308815416717339
152,3.240,0.0287274971822233
153,3.248,0.0160103499076125
154,3.255,0.0258381778910047
155,3.263,0.0406852056945066
156,3.270,0.0684254324857042
157,3.278,0.0536578005528093
158,3.285,0.0246886637643909
159,3.293,0.0371158435115675
160,3.300,0.0275089431681251
161,3.308,0.0529259777454755
162,3.315,0.0653048295714131
163,3.323,0.0481311575596899
164,3.331,0.0454247939703048
165,3.338,0.0217579205406817
166,3.346,0.0291175725465097
167,3.353,0.019362236444976
168,3.361,0.0172116439498396
169,3.368,0.0130036628076707
170,3.376,0.0254550065154668
171,3.383,0.0310610453791931
172,3.391,0.0215577048669772
173,3.398,0.0192724845912464
174,3.406,0.0148746437584956
175,3.413,0.0245609399725449
176,3.421,0.016673132827462
177,3.429,0.0164073292606474
178,3.436,0.0255827303073128
179,3.444,0.00856785003680344
180,3.451,0.0422213431910326
181,3.459,0.149171032892984
182,3.466,0.242167761334356
183,3.474,0.111074822979139
184,3.481,0.0369052718547404
185,3.489,0.0654601693182529
186,3.496,0.105693163749737
187,3.504,0.0459115251770692
188,3.511,0.031475284704099
189,3.519,0.0242951364057303
190,3.526,0.0149229716797346
191,3.534,0.0162554415081819
192,3.542,0.0167594326868174
193,3.549,0.0116539330073523
194,3.557,0.0309989094804572
195,3.564,0.0354450782344471
196,3.572,0.0192862925687433
197,3.579,0.0133108903069758
198,3.587,0.015761806312669
199,3.594,0.0184163899864409
200,3.602,0.0120681723322582
201,3.609,0.0175982673197518
202,3.617,0.0246575958150229
203,3.624,0.021778632506927
204,3.632,0.00652426936726773
205,3.639,0.0236530654521262
206,3.647,0.0188755052382116
207,3.655,0.0202286870329042
208,3.662,0.02092944189087
209,3.670,0.0222308437699493
210,3.677,0.025537854380448
211,3.685,0.0198144477079983
212,3.692,0.0116090570804875
213,3.700,0.00922372896790443
214,3.707,0.0241397966588906
215,3.715,0.0265596447152158
216,3.722,0.0263456210640144
217,3.730,0.0171426040623553
218,3.737,0.0146502641241716
219,3.745,0.0219650402031347
220,3.753,0.0192621286081238
221,3.760,0.0238498291314565
222,3.768,0.022289527674311
223,3.775,0.0275814350499837
224,3.783,0.0229246946391667
225,3.790,0.00723883220273038
226,3.798,0.0218821923381535
227,3.805,0.0141738889005298
228,3.813,0.0157790662845401
229,3.820,0.00548521906062879
230,3.828,0.0191309528219036
231,3.835,0.0176465952409908
232,3.843,0.0269635280569991
233,3.850,0.00530916734754379
234,3.858,0.012209704101601
235,3.866,0.0157203823801784
236,3.873,0.0169700043436445
237,3.881,0.0222998836574336
238,3.888,0.0218925483212761
239,3.896,0.0243745322763373
240,3.903,0.0205842424534484
241,3.911,0.0158964340932634
242,3.918,0.0124444397190477
243,3.926,0.00666580113661057
244,3.933,0.00648974942352557
245,3.941,0.00839179832371844
246,3.948,0.0110532859862388
247,3.956,0.0175568433872612
248,3.964,0.0372504712921619
249,3.971,0.0955650122557882
250,3.979,0.0518178875513523
251,3.986,0.00982782798339218
252,3.994,0.0114916892717642
253,4.001,0.0264733448558604
254,4.009,0.0252513388473881
255,4.016,0.0153061430552725
256,4.024,0.0140703290693033
257,4.031,0.0184992378514221
258,4.039,0.0339123927322953
259,4.046,0.0422558631347747
260,4.054,0.0331771179305874
261,4.061,0.00962416031531345
262,4.069,0.0200008554042059
263,4.077,0.0270153079726123
264,4.084,0.0526670781674094
265,4.092,0.0459909210476762
266,4.099,0.0354692421950666
267,4.107,0.0226209191342357
268,4.114,0.0278990185324115
269,4.122,0.0164073292606474
270,4.129,0.0240914687376516
271,4.137,0.0167628846811916
272,4.144,0.011408841406783
273,4.152,0.0243572723044662
274,4.159,0.0292694602989752
275,4.167,0.0115745371367453
276,4.175,0.0160517738401031
277,4.182,0.024274424439485
278,4.190,0.0224172514661569
279,4.197,0.0182955701833434
280,4.205,0.0165592170131128
281,4.212,0.0159102420707603
282,4.220,0.0107495104813078
283,4.227,0.0192828405743691
284,4.235,0.0203667668078728
285,4.242,0.0240604007882836
286,4.250,0.111675470000253
287,4.257,0.420359710931372
288,4.265,0.335074737921998
289,4.272,0.0626226299426475
290,4.280,0.0279749624086443
291,4.288,0.0143292286473695
292,4.295,0.0215438968894804
293,4.303,0.0242985884001045
294,4.310,0.0245505839894223
295,4.318,0.0207671981552818
296,4.325,0.0101695754264395
297,4.333,0.0169389363942766
298,4.340,0.0117989167710694
299,4.348,0.0130105667964191
300,4.355,0.0267287924395524
301,4.363,0
302,4.370,0.0138010735081145
303,4.378,0.00481898414640516
304,4.385,0.010801290396921
305,4.393,0.0234148778403053
306,4.401,0.00729061211834362
307,4.408,0.0392181080854649
308,4.416,0.149416124493554
309,4.423,0.171332836775449
310,4.431,0.0517764636188617
311,4.438,0.0118472446923084
312,4.446,0.0151680632803039
313,4.453,0.0198627756292373
314,4.461,0.0302670866731235
315,4.468,0.019362236444976
316,4.476,0.02092944189087
317,4.483,0.0131831665151299
318,4.491,0.0198006397305014
319,4.499,0.0168595405236696
320,4.506,0.0162381815363108
321,4.514,0.0185337577951642
322,4.521,0.027778198729314
323,4.529,0.0215646088557257
324,4.536,0.018834081305721
325,4.544,0.0158135862282823
326,4.551,0.0129898548301738
327,4.559,0.0144155285067249
328,4.566,0.0111085178962262
329,4.574,0.0166317088949714
330,4.581,0.0142291208105172
331,4.589,0.0101246994995747
332,4.596,0.0077704393363596
333,4.604,0.013041634745787
334,4.612,0.0179400147627991
335,4.619,0.00990031986525071
336,4.627,0.01923451265313
337,4.634,0.0152440071565367
338,4.642,0.0204599706559766
339,4.649,0.024018976855793
340,4.657,0.0133592182282149
341,4.664,0.0148919037303667
342,4.672,0.0143568446023632
343,4.679,0.0155892065939582
344,4.687,0.0205842424534484
345,4.694,0.0311922211654133
346,4.702,0.0148056038710113
347,4.710,0.0172358079104591
348,4.717,0.0172703278542013
349,4.725,0.022465579387396
350,4.732,0.0552491699593227
351,4.740,0.0635028885080725
352,4.747,0.0343128240797043
353,4.755,0.0256621261779197
354,4.762,0.0258519858685016
355,4.770,0.0179503707459218
356,4.777,0.0227797108754496
357,4.785,0.0117713008160756
358,4.792,0.0153924429146279
359,4.800,0.010880686267528
360,4.807,0.0217751805125528
361,4.815,0.0201492911622972
362,4.823,0.029234940355233
363,4.830,0.0287758251034623
364,4.838,0.0356211299475321
365,4.845,0.041092541030664
366,4.853,0.0212401213845494
367,4.860,0.0199870474267091
368,4.868,0.0154511268189896
369,4.875,0.0238498291314565
370,4.883,0.0167732406643142
371,4.890,0.0203426028472533
372,4.898,0.0207016102621717
373,4.905,0.0299460511963214
374,4.913,0.0109013982337733
375,4.921,0.00931002882725982
376,4.928,0.0179262067853023
377,4.936,0.0207879101215271
378,4.943,0.018561373750158
379,4.951,0.022258459724943
380,4.958,0.0476133584035575
381,4.966,0.057365242510717
382,4.973,0.0373712910952595
383,4.981,0.0256068942679323
384,4.988,0.0194002083830924
385,4.996,0.0166765848218362
386,5.003,0.0160897457782195
387,5.011,0.0284962135591508
388,5.018,0.025634510222926
389,5.026,0.0267667643776688
390,5.034,0.0188444372888437
391,5.041,0.018033218610903
392,5.049,0.020770650149656
393,5.056,0.0221341879274713
394,5.064,0.0147779879160175
395,5.071,0.0140841370468002
396,5.079,0.00448068869773202
397,5.086,0.0213609411876469
398,5.094,0.0255482103635706
399,5.101,0.0190688169231677
400,5.109,0.0207671981552818
401,5.116,0.0282925458910721
402,5.124,0.0203529588303759
403,5.131,0.0247024717418878
404,5.139,0.00775663135886274
405,5.147,0.0169320324055281
406,5.154,0.0216094847825905
407,5.162,0.0164763691481317
408,5.169,0.0175499393985128
409,5.177,0.024498804073809
410,5.184,0.0161484296825812
411,5.192,0.0189894210525607
412,5.199,0.0205359145322094
413,5.207,0.0219753961862573
414,5.214,0.0264457289008667
415,5.222,0.0222826236855625
416,5.229,0.0250062472468187
417,5.237,0.0379512261501277
418,5.245,0.0371607194384323
419,5.252,0.0295732358039061
420,5.260,0.0206636383240554
421,5.267,0.0240155248614188
422,5.275,0.0170079762817609
423,5.282,0.0300150910838058
424,5.290,0.0209501538571153
425,5.297,0.0216405527319584
426,5.305,0.03283537048754
427,5.312,0.0201769071172909
428,5.320,0.0193449764731049
429,5.327,0.0264940568221057
430,5.335,0.0173738876854278
431,5.342,0.0229385026166635
432,5.350,0.026770216372043
433,5.358,0.0254929784535832
434,5.365,0.0239499369683087
435,5.373,0.023266442082214
436,5.380,0.0347822953145977
437,5.388,0.0229661185716572
438,5.395,0.0186476736095134
439,5.403,0.0284099136997954
440,5.410,0.0368914638772435
441,5.418,0.0419417316467211
442,5.425,0.0280163863411349
443,5.433,0.0221825158487103
444,5.440,0.0279162785042826
445,5.448,0.0335430293342542
446,5.456,0.0381583458125807
447,5.463,0.0377717224426685
448,5.471,0.0398187551065784
449,5.478,0.0405816458632801
450,5.486,0.0332496098124459
451,5.493,0.0285514454691383
452,5.501,0.0258381778910047
453,5.508,0.0372953472190267
454,5.516,0.0280612622679997
455,5.523,0.030898801643605
456,5.531,0.0444754955173954
457,5.538,0.0376923265720615
458,5.546,0.0283374218179369
459,5.553,0.0268323522707789
460,5.561,0.0381238258688385
461,5.569,0.0268116403045336
462,5.576,0.0229454066054119
463,5.584,0.0399637388702955
464,5.591,0.0486834766595644
465,5.599,0.0385863931149834
466,5.606,0.042052195466696
467,5.614,0.0415033283611957
468,5.621,0.0624672901958078
469,5.629,0.0469505754837081
470,5.636,0.0493566155625365
471,5.644,0.0513691282827043
472,5.651,0.036435800619847
473,5.659,0.0325039790276153
474,5.667,0.0371745274159292
475,5.674,0.0369294358153599
476,5.682,0.0456181056552609
477,5.689,0.0448241469491912
478,5.697,0.0430187538914764
479,5.704,0.0307572698742621
480,5.712,0.0363978286817306
481,5.719,0.0489078562938884
482,5.727,0.0538476602433912
483,5.734,0.0450416225947668
484,5.742,0.0479482018578565
485,5.749,0.0354140102850792
486,5.757,0.0302256627406329
487,5.764,0.0358006336549913
488,5.772,0.0505233896610214
489,5.780,0.0465984720575381
490,5.787,0.042963521981489
491,5.795,0.0387210208955778
492,5.802,0.0477376302010293
493,5.810,0.05376481237841
494,5.817,0.0471231752024189
495,5.825,0.0410683770700445
496,5.832,0.0436297568957126
497,5.840,0.0402847743470976
498,5.847,0.0441717200124645
499,5.855,0.0502575860942068
500,5.862,0.0374541389602407
501,5.870,0.0427702102965329
502,5.878,0.0342644961584653
503,5.885,0.0408543534188432
504,5.893,0.0395425955566412
505,5.900,0.0373436751402658
506,5.908,0.0423041910560138
507,5.915,0.0453419461053236
508,5.923,0.0348340752302109
509,5.930,0.0391387122148579
510,5.938,0.0402847743470976
511,5.945,0.0321484236070711
512,5.953,0.0393044079448203
513,5.960,0.0449311587747919
514,5.968,0.0529156217623529
515,5.975,0.0680319051270436
516,5.983,0.0540513279114699
517,5.991,0.0489113082882627
518,5.998,0.0431671896495677
519,6.006,0.0493842315175302
520,6.013,0.0603166977006714
521,6.021,0.0578036457962424
522,6.028,0.0582593090536389
523,6.036,0.0494843393543825
524,6.043,0.0504681577510339
525,6.051,0.042355970971627
526,6.058,0.0645868147415763
527,6.066,0.0385587771599897
528,6.073,0.0449553227354114
529,6.081,0.0502817500548263
530,6.088,0.0526429142067899
531,6.096,0.0555702054361248
532,6.104,0.0584077448117301
533,6.111,0.0581626532111608
534,6.119,0.065349705498278
535,6.126,0.0716288832649764
536,6.134,0.0954027685202001
537,6.141,0.0739969514056884
538,6.149,0.06214970671338
539,6.156,0.050837521149075
540,6.164,0.0456008456833898
541,6.171,0.0480172417453408
542,6.179,0.05306060552607
543,6.186,0.0565678318102731
544,6.194,0.0595434509608471
545,6.202,0.0690916673999278
546,6.209,0.0568163754052167
547,6.217,0.0569061272589463
548,6.224,0.0670998666460053
549,6.232,0.0814808752089881
550,6.239,0.0886472155298599
551,6.247,0.0499641665723985
552,6.254,0.0661298562268507
553,6.262,0.0425941585834479
554,6.269,0.0472267350336454
555,6.277,0.0447343950954616
556,6.284,0.047219831044897
557,6.292,0.0572029987751288
558,6.299,0.0732823885702257
559,6.307,0.0652012697401867
560,6.315,0.057589622145041
561,6.322,0.0715943633212342
562,6.330,0.0574791583250661
563,6.337,0.0516107678888994
564,6.345,0.0638101160073777
565,6.352,0.0486731206764418
566,6.360,0.0498260867974298
567,6.367,0.0435469090307314
568,6.375,0.053557692715957
569,6.382,0.0607827169411905
570,6.390,0.0521182110619091
571,6.397,0.0491874678381999
572,6.405,0.0568508953489588
573,6.413,0.0646351426628153
574,6.420,0.0700202538865918
575,6.428,0.0699995419203465
576,6.435,0.048372797165885
577,6.443,0.0532953411435166
578,6.450,0.0656810969582027
579,6.458,0.0578968496443462
580,6.465,0.0539788360296114
581,6.473,0.063606448339299
582,6.480,0.0461462607945159
583,6.488,0.0519766792925662
584,6.495,0.0529466897117208
585,6.503,0.0479861737959728
586,6.510,0.0816741868939441
587,6.518,0.11987740863339
588,6.526,0.105644835828498
589,6.533,0.09885821488879
590,6.541,0.0975637169984591
591,6.548,0.10820966764854
592,6.556,0.12126165837745
593,6.563,0.101481730613194
594,6.571,0.0787227317039897
595,6.578,0.061542155703518
596,6.586,0.0559809927666565
597,6.593,0.0699891859372239
598,6.601,0.067510653976537
599,6.608,0.0778114051891967
600,6.616,0.0785604879684016
601,6.624,0.0772694420724449
602,6.631,0.0733065525308452
603,6.639,0.0518213395457265
604,6.646,0.0600163741901147
605,6.654,0.0636409682830412
606,6.661,0.0579658895318305
607,6.669,0.0609449606767787
608,6.676,0.0660918842887343
609,6.684,0.0654187453857623
610,6.691,0.0580590933799343
611,6.699,0.0588841200353719
612,6.706,0.0545587710844796
613,6.714,0.0599059103701398
614,6.721,0.0545725790619765
615,6.729,0.0602752737681808
616,6.737,0.0440923241418575
617,6.744,0.0540547799058441
618,6.752,0.0503335299704395
619,6.759,0.0521216630562833
620,6.767,0.0543585554107751
621,6.774,0.0432811054639168
622,6.782,0.0436228529069642
623,6.789,0.0503922138748012
624,6.797,0.0452867141953361
625,6.804,0.0427943742571524
626,6.812,0.0401052706396383
627,6.819,0.0440957761362317
628,6.827,0.0435745249857251
629,6.834,0.0367740960685202
630,6.842,0.0651149698808313
631,6.850,0.0427667583021587
632,6.857,0.0529087177736045
633,6.865,0.0648836862577588
634,6.872,0.0738450636532229
635,6.880,0.0688086038612421
636,6.887,0.0591188556528186
637,6.895,0.0422420551572779
638,6.902,0.0862895033722706
639,6.910,0.154052152938125
640,6.917,0.196408123909752
641,6.925,0.135470067221722
642,6.932,0.0970217538817073
643,6.940,0.0954787123964328
644,6.948,0.0731719247502508
645,6.955,0.0766515350794603
646,6.963,0.0678454974308359
647,6.970,0.064693826567177
648,6.978,0.0639999756979596
649,6.985,0.0566679396471254
650,6.993,0.0637859520467582
651,7.000,0.063606448339299
652,7.008,0.0592741953996583
653,7.015,0.0699374060216107
654,7.023,0.0934800076537619
655,7.030,0.141051942124829
656,7.038,0.104540197628749
657,7.045,0.085160701211902
658,7.053,0.0731063368571407
659,7.061,0.0856612403961633
660,7.068,0.0745561744943113
661,7.076,0.0701928536053026
662,7.083,0.0972841054541477
663,7.091,0.0775317936448853
664,7.098,0.0777078453579703
665,7.106,0.0737173398613769
666,7.113,0.0649458221564947
667,7.121,0.0563158362209554
668,7.128,0.0684495964463237
669,7.136,0.0629954453350628
670,7.143,0.0811494837490633
671,7.151,0.116314950439199
672,7.159,0.137347952161295
673,7.166,0.139467476707064
674,7.174,0.108951846438997
675,7.181,0.0996521735948597
676,7.189,0.0908461359462353
677,7.196,0.0955546562726656
678,7.204,0.11089531927168
679,7.211,0.0990515265737461
680,7.219,0.114916892717642
681,7.226,0.183839412393233
682,7.234,0.18811988541726
683,7.241,0.146854744667886
684,7.249,0.121054538714997
685,7.256,0.0835831397828854
686,7.264,0.0847395578982477
687,7.272,0.0703965212733813
688,7.279,0.0812841115296578
689,7.287,0.0613281320523166
690,7.294,0.0792646948207416
691,7.302,0.0638964158667331
692,7.309,0.0692918830736323
693,7.317,0.0720500265786307
694,7.324,0.0767481909219383
695,7.332,0.0689881075687013
