#"+EI TIC Scan ACE-Blank2.d "
#Point,X(Minutes),Y(Counts)
0,2.095,0.0833625379743516
1,2.102,0.0800004500932764
2,2.110,0.0697145483032663
3,2.117,0.0652635250760939
4,2.125,0.0586119450036833
5,2.132,0.0562298989340956
6,2.140,0.0453586943955583
7,2.148,0.0544059322293828
8,2.155,0.0602408107922204
9,2.163,0.0620602402663245
10,2.170,0.0441109559781552
11,2.178,0.056102856477051
12,2.185,0.0416971492943064
13,2.193,0.0440383602884154
14,2.200,0.0374548386751359
15,2.208,0.0483578038279344
16,2.215,0.0439975252129368
17,2.223,0.0487071705848073
18,2.230,0.0355129039745959
19,2.238,0.0414838994556957
20,2.245,0.0411073093151704
21,2.253,0.0367651796226077
22,2.261,0.0305355619968098
23,2.268,0.0266698415181646
24,2.276,0.0493968296373355
25,2.283,0.0242832582179682
26,2.291,0.0335800437352733
27,2.298,0.0428904409444046
28,2.306,0.0239928754590089
29,2.313,0.0408486871704723
30,2.321,0.0364793340942572
31,2.328,0.0329811292949198
32,2.336,0.0265790969059899
33,2.343,0.0230355198005651
34,2.351,0.0433713873889309
35,2.358,0.030340461080634
36,2.366,0.0277406279418269
37,2.374,0.0185935710346102
38,2.381,0.0302224930848068
39,2.389,0.186602683245586
40,2.396,0.26575013398442
41,2.404,0.0821556346324272
42,2.411,0.0546827032965158
43,2.419,0.0466971774251361
44,2.426,0.0292243023508844
45,2.434,0.028797802673663
46,2.441,0.0297823817157592
47,2.449,0.026629006442686
48,2.456,0.0296099669526271
49,2.464,0.0418468779043947
50,2.472,0.0341880326368442
51,2.479,0.0292333768121018
52,2.487,0.0402497727301188
53,2.494,0.0376998491280078
54,2.502,0.0368604614653912
55,2.509,0.0380582903460981
56,2.517,0.0290337386653174
57,2.524,0.024442061289274
58,2.532,0.0299275730952388
59,2.539,0.0383758964887098
60,2.547,0.0340972880246695
61,2.554,0.0324638850055236
62,2.562,0.031919417332475
63,2.569,0.0284938082228775
64,2.577,0.0277315534806094
65,2.585,0.0242968699097944
66,2.592,0.0332125280559655
67,2.600,0.0210300638715027
68,2.607,0.0364158128657348
69,2.615,0.0395328902939381
70,2.622,0.045277024244601
71,2.630,0.0205037451208891
72,2.637,0.0269738359689501
73,2.645,0.0407715542501237
74,2.652,0.0281671276190483
75,2.660,0.0243876145219692
76,2.667,0.0326272253074382
77,2.675,0.0339021871084937
78,2.683,0.0291426321999271
79,2.690,0.0254946987905014
80,2.698,0.0347687981547628
81,2.705,0.0230536687230001
82,2.713,0.0352633562911153
83,2.720,0.053239863962937
84,2.728,0.0474775810898392
85,2.735,0.0378677266605311
86,2.743,0.0333985545109237
87,2.750,0.0457352845360836
88,2.758,0.0412570379252587
89,2.765,0.0537752571747681
90,2.773,0.0427543240261424
91,2.780,0.0410256391642131
92,2.788,0.0295645946465398
93,2.796,0.0420419788205705
94,2.803,0.0388840663168885
95,2.811,0.0365292436309533
96,2.818,0.0375319715954845
97,2.826,0.0319784013303886
98,2.833,0.0275273781032162
99,2.841,0.0464158691273944
100,2.848,0.0275364525644337
101,2.856,0.0363568288678212
102,2.863,0.0314747687328186
103,2.871,0.0319965502528236
104,2.878,0.036343217175995
105,2.886,0.0493559945618569
106,2.894,0.0341834954062355
107,2.901,0.0429040526362308
108,2.909,0.0371190836100893
109,2.916,0.0367787913144339
110,2.924,0.0377497586647039
111,2.931,0.0339929317206685
112,2.939,0.0353495636726813
113,2.946,0.055875994946614
114,2.954,1.31856004997487
115,2.961,16.9743922334227
116,2.969,59.9313444413208
117,2.976,100
118,2.984,13.3139587536699
119,2.991,0.138816570474353
120,2.999,0.0877818005872628
121,3.007,0.0655176099901832
122,3.014,0.0633669626816412
123,3.022,0.056189063858617
124,3.029,0.0711528504062364
125,3.037,0.0830630807541748
126,3.044,0.061080198454837
127,3.052,0.0491427447232462
128,3.059,0.0583533228589852
129,3.067,0.0601228427963932
130,3.074,0.0494013668679443
131,3.082,0.0427044144894463
132,3.089,0.0570965099803647
133,3.097,0.0458804759155632
134,3.105,0.0261026876920723
135,3.112,0.0496826751656861
136,3.120,0.0654404770698347
137,3.127,0.0670920290114155
138,3.135,0.0315700505756022
139,3.142,0.0332079908253567
140,3.150,0.0423731966550084
141,3.157,0.0684849588082982
142,3.165,0.0463432734376545
143,3.172,0.0393060287635012
144,3.180,0.0459984439113904
145,3.187,0.0431173024748415
146,3.195,0.037418540830266
147,3.202,0.0317969121060391
148,3.210,0.0332987354375315
149,3.218,0.0215881432363776
150,3.225,0.0319738640997799
151,3.233,0.0360891322619056
152,3.240,0.0384575666396671
153,3.248,0.0427951591016211
154,3.255,0.0520511095434475
155,3.263,0.0336344905025781
156,3.270,0.0313159656615128
157,3.278,0.0281399042353959
158,3.285,0.0368649986959999
159,3.293,0.0184619913469568
160,3.300,0.0251453320336285
161,3.308,0.0499231483879492
162,3.315,0.0423142126570948
163,3.323,0.0241335296078798
164,3.331,0.0152723182290136
165,3.338,0.0337206978841442
166,3.346,0.0261072249226811
167,3.353,0.0199456657560142
168,3.361,0.0112160340648015
169,3.368,0.0203630909720182
170,3.376,0.0129900912328182
171,3.383,0.0307488118354205
172,3.391,0.0261616716899859
173,3.398,0.0290791109714047
174,3.406,0.0214384146262892
175,3.413,0.0200817826742764
176,3.421,0.016098094199804
177,3.429,0.0171824923152925
178,3.436,0.0160527218937166
179,3.444,0.0153585256105797
180,3.451,0.0268740168955579
181,3.459,0.0245509548238838
182,3.466,0.0181080873594752
183,3.474,0.0271734741157346
184,3.481,0.040090969658813
185,3.489,0.0692199901669138
186,3.496,0.0412887985395199
187,3.504,0.0256716507842422
188,3.511,0.0180445661309528
189,3.519,0.0195872245379239
190,3.526,0.0136162290568241
191,3.534,0.008153403403903
192,3.542,0.0214656380099416
193,3.549,0.0195463894624453
194,3.557,0.0277633140948706
195,3.564,0.0126271127841191
196,3.572,0.0284983454534862
197,3.579,0.00704631913537082
198,3.587,0.024736981278842
199,3.594,0.0120009749601132
200,3.602,0.0190336824036578
201,3.609,0.0142287551890038
202,3.617,0.00876139230547395
203,3.624,0.0181579968961713
204,3.632,0.0104900771674033
205,3.640,0.0137296598220426
206,3.647,0.0173549070784246
207,3.655,0.0264112193734665
208,3.662,0.0234121099410904
209,3.670,0.017173417854075
210,3.677,0.0262751024552044
211,3.685,0.017677050451645
212,3.692,0.0141017127319591
213,3.700,0.0221280736788174
214,3.707,0.0228676422680418
215,3.715,0.0141652339604814
216,3.722,0.0238023117734419
217,3.730,0.0162432855792837
218,3.737,0.0120962568028967
219,3.745,0.0118240229663724
220,3.753,0.0103857208634023
221,3.760,0.0210482127939377
222,3.768,0.0200953943661026
223,3.775,0.0174048166151207
224,3.783,0.0203041069741046
225,3.790,0.0194284214666181
226,3.798,0.0175227846109479
227,3.805,0.0192741556259209
228,3.813,0.0162296738874574
229,3.820,0.0220781641421213
230,3.828,0.01032219963488
231,3.835,0.00680584591310768
232,3.843,0.0216471272342912
233,3.851,0.00927863659487014
234,3.858,0.00872963169121278
235,3.866,0.0184211562714781
236,3.873,0.0152723182290136
237,3.881,0.0196280596134025
238,3.888,0.0138158672036086
239,3.896,0.0181942947410412
240,3.903,0.0112387202178451
241,3.911,0.021597217697595
242,3.918,0.0143331114930048
243,3.926,0.0147051644029213
244,3.933,0.0150454566985767
245,3.941,0.00830313201399137
246,3.948,0.0183757839653907
247,3.956,0.0219738078381203
248,3.964,0.0301181367808058
249,3.971,0.0607671295428341
250,3.979,0.0318695077957789
251,3.986,0.0113612254442811
252,3.994,0.020435686661758
253,4.001,0.00472779429430547
254,4.009,0.0152813926902311
255,4.016,0.0262569535327694
256,4.024,0.0128811976982085
257,4.031,0.0195781500767064
258,4.039,0.0253495074110217
259,4.046,0.022377621362298
260,4.054,0.0243649283689255
261,4.061,0.0121733897232453
262,4.069,0.0204992078902803
263,4.077,0.0173231464641634
264,4.084,0.0115926242053267
265,4.092,0.0143421859542222
266,4.099,0.00627045270127654
267,4.107,0.0116516082032403
268,4.114,0.0177224227577324
269,4.122,0.0144601539500494
270,4.129,0.0253812680252829
271,4.137,0.00869787107695161
272,4.144,0.0217333346158572
273,4.152,0.0188385814874821
274,4.159,0.0134029792182134
275,4.167,0.0186797784161762
276,4.175,0.0251226458805848
277,4.182,0.000258622144698092
278,4.190,0.026629006442686
279,4.197,0.0195600011542715
280,4.205,0.0136978992077814
281,4.212,0.0118739325030685
282,4.220,0.0216017549282038
283,4.227,0.014156159499264
284,4.235,0.0132396389162988
285,4.242,0.0120826451110705
286,4.250,0.0118058740439375
287,4.257,0.0238930563856167
288,4.265,0.0190745174791365
289,4.272,0.0176861249128625
290,4.280,0.0268150328976443
291,4.288,0.0230763548760438
292,4.295,0.00527679919796282
293,4.303,0.0174184283069469
294,4.310,0.009038163372607
295,4.318,0.0234665567083953
296,4.325,0.026524650138685
297,4.333,0.018752374105916
298,4.340,0.014051803195263
299,4.348,0.00957809381504687
300,4.355,0.00704631913537082
301,4.363,0.0177950184474722
302,4.370,0.0132396389162988
303,4.378,0.0132169527632551
304,4.386,0.00737753696980872
305,4.393,0.0126588733983803
306,4.401,0.00843471170164478
307,4.408,0.0238567585407468
308,4.416,0.0748098582768796
309,4.423,0.0845376807020148
310,4.431,0.0378813383523573
311,4.438,0.0326226880768295
312,4.446,0.0242015880670109
313,4.453,0.0141425478074378
314,4.461,0.0109483374588859
315,4.468,0.016982854168508
316,4.476,0.021511010316029
317,4.483,0.0134211281406483
318,4.491,0.0124592352515958
319,4.499,0.0113476137524549
320,4.506,0.0186707039549587
321,4.514,0.0117650389684588
322,4.521,0.0210708989469814
323,4.529,0.0286979836002707
324,4.536,0.0164247748036332
325,4.544,0.0337887563432753
326,4.551,0.0146734037886602
327,4.559,0.017105359394944
328,4.566,0.018752374105916
329,4.574,0.0121007940335055
330,4.581,0.0134891865997794
331,4.589,0.0160481846631079
332,4.597,0.00725956897398152
333,4.604,0.0104310931694897
334,4.612,0.0210754361775901
335,4.619,0.0172324018519886
336,4.627,0.00658805884388823
337,4.634,0.0267378999772957
338,4.642,0.00513614504909193
339,4.649,0.0249275449644091
340,4.657,0.0151770363862301
341,4.664,0.0124456235597696
342,4.672,0.0184483796551305
343,4.679,0.0142786647256999
344,4.687,0.011311315907585
345,4.694,0.00742290927589611
346,4.702,0.0183984701184344
347,4.710,0.0132033410714289
348,4.717,0.0183757839653907
349,4.725,0.0107441620814927
350,4.732,0.0220645524502951
351,4.740,0.0172233273907712
352,4.747,0.0235845247042225
353,4.755,0.0171598061622488
354,4.762,0.0168739606338983
355,4.770,0.0254266403313703
356,4.777,0.0205355057351502
357,4.785,0.0144374677970058
358,4.792,0.0201498411334075
359,4.800,0.0203857771250619
360,4.808,0.00905631229504195
361,4.815,0.0265745596753811
362,4.823,0.0110481565322781
363,4.830,0.00490474628804627
364,4.838,0.0304493546152438
365,4.845,0.0170282264745954
366,4.853,0.0174229655375557
367,4.860,0.00531763427344147
368,4.868,0.0131988038408202
369,4.875,0.0159302166672807
370,4.883,0.0277451651724356
371,4.890,0.0231625622576098
372,4.898,0.0274275590298239
373,4.905,0.0174365772293819
374,4.913,0.0166607107952876
375,4.921,0.00964161504356921
376,4.928,0.0254402520231965
377,4.936,0.0168921095563333
378,4.943,0.0196099106909676
379,4.951,0.0237796256203982
380,4.958,0.00310800296698584
381,4.966,0.0206489365003687
382,4.973,0.0200908571354939
383,4.981,0.0121915386456802
384,4.988,0.0115971614359355
385,4.996,0.0148911908578796
386,5.003,0.0189792356363529
387,5.011,0.0125726660168143
388,5.018,0.0144374677970058
389,5.026,0.0149411003945757
390,5.034,0.00771329203485537
391,5.041,0.0173367581559896
392,5.049,0.0216289783118562
393,5.056,0.0328450123766577
394,5.064,0.0223821585929068
395,5.071,0.0150817545434466
396,5.079,0.0199275168335793
397,5.086,0.0168694234032896
398,5.094,0.00973235965574398
399,5.101,0.0137432715138688
400,5.109,0.010113487026878
401,5.116,0.0156171477552778
402,5.124,0.011606235897153
403,5.132,0.0270645805811249
404,5.139,0.0111933479117578
405,5.147,0.0239883382284002
406,5.154,0.014328574262396
407,5.162,0.0102405294839227
408,5.169,0.0155173286818855
409,5.177,0.0247006834339721
410,5.184,0.0172550880050323
411,5.192,0.00424231061917045
412,5.199,0.017763257833211
413,5.207,0.0195463894624453
414,5.214,0.00979588088426632
415,5.222,0.0109891725343645
416,5.229,0.0160436474324992
417,5.237,0.0116107731277617
418,5.245,0.0103630347103586
419,5.252,0.00964161504356921
420,5.260,0.0178540024453858
421,5.267,0.00698279790684848
422,5.275,0.0123185811027249
423,5.282,0.0348776916893725
424,5.290,0.0113521509830636
425,5.297,0.015803174210236
426,5.305,0.0147913717844874
427,5.312,0.0174955612272955
428,5.320,0.00183304116593033
429,5.327,0.0254856243292839
430,5.335,0.0089201953767798
431,5.343,0.01129316698515
432,5.350,0.017277774158076
433,5.358,0.016116243122239
434,5.365,0.0180944756676489
435,5.373,0.0112704808321063
436,5.380,0.0216607389261174
437,5.388,0.0220554779890776
438,5.395,0.0112296457566277
439,5.403,0.0109891725343645
440,5.410,0.0178993747514732
441,5.418,0.0153766745330146
442,5.425,0.024859486505278
443,5.433,0.0247732791237119
444,5.440,0.0125046075576832
445,5.448,0.0155899243716253
446,5.456,0.0162069877344138
447,5.463,0.0165926523361565
448,5.471,0.0307306629129855
449,5.478,0.0189837728669617
450,5.486,0.0202678091292347
451,5.493,0.0130218518470794
452,5.501,0.0126770223208152
453,5.508,0.0162795834241536
454,5.516,0.0189701611751355
455,5.523,0.0154855680676243
456,5.531,0.0247868908155382
457,5.538,0.014451079488832
458,5.546,0.0200590965212327
459,5.554,0.00352542818298978
460,5.561,0.0197913999153171
461,5.569,0.0188612676405257
462,5.576,0.0113521509830636
463,5.584,0.0153494511493622
464,5.591,0.02208270137273
465,5.599,0.0206534737309774
466,5.606,0.0184211562714781
467,5.614,0.00694650006197857
468,5.621,0.0132895484529949
469,5.629,0.01276776693299
470,5.636,0.0133122346060386
471,5.644,0.0168422000196371
472,5.651,0.0169102584787682
473,5.659,0.0179356725963431
474,5.667,0.00765430803694177
475,5.674,0.0123957140230735
476,5.682,0.0241017689936187
477,5.689,0.0155989988328428
478,5.697,0.0126543361677715
479,5.704,0.0128675860063823
480,5.712,0.0133939047569959
481,5.719,0.0170781360112915
482,5.727,0.0182759648919985
483,5.734,0.0210845106388076
484,5.742,0.0152042597698826
485,5.749,0.0223821585929068
486,5.757,0.0146552548662252
487,5.764,0.01963713407462
488,5.772,0.0252542255682382
489,5.780,0.0210618244857639
490,5.787,0.0260482409247675
491,5.795,0.019655282997055
492,5.802,0.0162387483486749
493,5.810,0.0212796115549833
494,5.817,0.0137341970526513
495,5.825,0.017209715698945
496,5.832,0.0146144197907466
497,5.840,0.0113566882136723
498,5.847,0.0118194857357637
499,5.855,0.0205627291188027
500,5.862,0.0155309403737117
501,5.870,0.0151543502331864
502,5.878,0.010721475928449
503,5.885,0.00751819111867962
504,5.893,0.0117332783541976
505,5.900,0.0176634387598188
506,5.908,0.0177360344495586
507,5.915,0.0176362153761664
508,5.923,0.0210028404878503
509,5.930,0.00208258884941095
510,5.938,0.0143739465684834
511,5.945,0.0237614766979633
512,5.953,0.0224774404356903
513,5.960,0.0130127773858619
514,5.968,0.00693288837015235
515,5.975,0.024442061289274
516,5.983,0.0221416853706436
517,5.991,0.0179039119820819
518,5.998,0.01032219963488
519,6.006,0.0299820198625437
520,6.013,0.0136616013629115
521,6.021,0.00889750922373611
522,6.028,0.0178131673699072
523,6.036,0.0230400570311739
524,6.043,0.0184347679633043
525,6.051,0.0252360766458033
526,6.058,0.00236389714715273
527,6.066,0.0149955471618806
528,6.073,0.0199365912947968
529,6.081,0.00920150367452158
530,6.089,0.0229084773435204
531,6.096,0.0159166049754545
532,6.104,0.00998190733922459
533,6.111,0.0216471272342912
534,6.119,0.0267288255160782
535,6.126,0.0222505789052534
536,6.134,0.0440701209026766
537,6.141,0.0310437318249885
538,6.149,0.019464719311488
539,6.156,0.02406093391814
540,6.164,0.024269646526142
541,6.171,0.0283395423821804
542,6.179,0.0127496180105551
543,6.186,0.0168512744808546
544,6.194,0.0207079204982823
545,6.202,0.0195463894624453
546,6.209,0.0170327637052042
547,6.217,0.0339339477227549
548,6.224,0.0171144338561614
549,6.232,0.0234665567083953
550,6.239,0.0174774123048605
551,6.247,0.0203131814353221
552,6.254,0.0204674472760192
553,6.262,0.0216244410812475
554,6.269,0.0247415185094508
555,6.277,0.0139928191973494
556,6.284,0.0267197510548607
557,6.292,0.0174320399987731
558,6.300,0.0247596674318857
559,6.307,0.0204538355841929
560,6.315,0.0196825063807074
561,6.322,0.0188022836426121
562,6.330,0.0222778022889058
563,6.337,0.0194964799257491
564,6.345,0.0129174955430784
565,6.352,0.00970059904148281
566,6.360,0.00354357710542473
567,6.367,0.0109075023834072
568,6.375,0.0155173286818855
569,6.382,0.0231262644127399
570,6.390,0.0187795974895685
571,6.397,0.00672417576215039
572,6.405,0.00771782926546411
573,6.413,0.0140881010401329
574,6.420,0.0225500361254301
575,6.428,0.0129492561573395
576,6.435,0.00897464214408466
577,6.443,0.0181942947410412
578,6.450,0.0142695902644824
579,6.458,0.00539476719379002
580,6.465,0.0216698133873348
581,6.473,0.0187750602589597
582,6.480,0.028189813772092
583,6.488,0.00984579042096244
584,6.495,0.00578043179553279
585,6.503,0.0240836200711837
586,6.511,0.0151861108474476
587,6.518,0.00884759968703998
588,6.526,0.0150817545434466
589,6.533,0.0155989988328428
590,6.541,0.010912039614016
591,6.548,0.0141924573441339
592,6.556,0.0202587346680172
593,6.563,0.0300500783216748
594,6.571,0.021511010316029
595,6.578,0.016619875719809
596,6.586,0.0136570641323027
597,6.593,0.0195418522318365
598,6.601,0.0152768554596224
599,6.608,0.0102223805614877
600,6.616,0.0212206275570697
601,6.624,0.00885667414825746
602,6.631,0.0130672241531667
603,6.639,0.0165608917218954
604,6.646,0.0220282546054252
605,6.654,0.0134211281406483
606,6.661,0.0214837869323766
607,6.669,0.0170463753970304
608,6.676,0.01719156677651
609,6.684,0.0167786787911148
610,6.691,0.0175863058394702
611,6.699,0.0185935710346102
612,6.706,0.0281671276190483
613,6.714,0.013167043226559
614,6.721,0.0171280455479877
615,6.729,0.0142287551890038
616,6.737,0.0109392629976684
617,6.744,0.0176044547619052
618,6.752,0.0186344061100888
619,6.759,0.0195100916175753
620,6.767,0.0111751989893228
621,6.774,0.0354085476705949
622,6.782,0.0119919004988957
623,6.789,0.0109846353037558
624,6.797,0.0113476137524549
625,6.804,0.0101906199472266
626,6.812,0.0174955612272955
627,6.819,0.0119782888070695
628,6.827,0.0177995556780809
629,6.835,0.00849369569955838
630,6.842,0.0202541974374085
631,6.850,0.0202133623619298
632,6.857,0.0117196666623714
633,6.865,0.019446570389053
634,6.872,0.022413919207168
635,6.880,0.00569422441396676
636,6.887,0.00741383481467863
637,6.895,0.0141743084216989
638,6.902,0.0106352685468829
639,6.910,0.0242197369894459
640,6.917,0.0213703561671581
641,6.925,0.016982854168508
642,6.932,0.0266516925957297
643,6.940,0.0269647615077326
644,6.948,0.0195736128460977
645,6.955,0.00877954122790891
646,6.963,0.0159982751264118
647,6.970,0.0179674332106043
648,6.978,0.0170418381664216
649,6.985,0.0298595146361078
650,6.993,0.0266698415181646
651,7.000,0.0171870295459013
652,7.008,0
653,7.015,0.0244919708259702
654,7.023,0.0487616173521121
655,7.030,0.0690022030976944
656,7.038,0.0511572751135261
657,7.046,0.0297007115648019
658,7.053,0.0302769398521117
659,7.061,0.0218331536892494
660,7.068,0.0206171758861075
661,7.076,0.0226090201233437
662,7.083,0.0191607248607025
663,7.091,0.0134211281406483
664,7.098,0.0260573153859849
665,7.106,0.0333577194354451
666,7.113,0.0362161747189503
667,7.121,0.0303540727724602
668,7.128,0.0276408088684346
669,7.136,0.0284438986861814
670,7.143,0.0181670713573888
671,7.151,0.0265609479835549
672,7.159,0.0445011578105067
673,7.166,0.0418105800595248
674,7.174,0.0478813946140169
675,7.181,0.0288522494409678
676,7.189,0.0272959793421705
677,7.196,0.0279901756253075
678,7.204,0.0260936132308548
679,7.211,0.0240926945324012
680,7.219,0.0398414219753324
681,7.226,0.0779586963193441
682,7.234,0.0761755646901099
683,7.241,0.0876910559750881
684,7.249,0.0612934482934478
685,7.257,0.0567199198398394
686,7.264,0.0368513870041737
687,7.272,0.0464975392783517
688,7.279,0.0392969543022837
689,7.287,0.0408078520949936
690,7.294,0.0352179839850279
691,7.302,0.0352633562911153
692,7.309,0.027808686400958
