#"+EI TIC Scan ACE-PEEK.d "
#Point,X(Minutes),Y(Counts)
0,2.095,0.0806251714086505
1,2.102,0.0830038572915819
2,2.110,0.0854280247401524
3,2.117,0.0713605764879408
4,2.125,0.0734481803507811
5,2.132,0.0646520455561554
6,2.140,0.0587530864927482
7,2.148,0.0740849222697302
8,2.155,0.0650932167428559
9,2.163,0.0482377485169598
10,2.170,0.0541458038934949
11,2.178,0.05688834230154
12,2.185,0.0435076656904807
13,2.193,0.0405104305148559
14,2.200,0.0491792169256918
15,2.208,0.0443809117507537
16,2.215,0.0579298701546783
17,2.223,0.0491018982641051
18,2.230,0.0503389968494919
19,2.238,0.0506391751827108
20,2.245,0.0462502040985258
21,2.253,0.0286079047870712
22,2.261,0.0417247883174231
23,2.268,0.04530418753323
24,2.276,0.0423524339232444
25,2.283,0.0642790967179138
26,2.291,0.0335335583457991
27,2.298,0.0548143829083915
28,2.306,0.0469597165224977
29,2.313,0.0369628683949965
30,2.321,0.0374904545564115
31,2.328,0.0345114120070424
32,2.336,0.040501334201728
33,2.343,0.0404331118532692
34,2.351,0.0340838852900337
35,2.358,0.0400874519544111
36,2.366,0.0366354011223941
37,2.374,0.0313367987254246
38,2.381,0.0480376296281473
39,2.389,0.173530365539891
40,2.396,0.285969892113178
41,2.404,0.101432987688595
42,2.411,0.0365990158698827
43,2.419,0.0354892656682857
44,2.426,0.0427435753877417
45,2.434,0.034998064759382
46,2.441,0.0430255610947049
47,2.449,0.0347979458705695
48,2.456,0.0320781482453439
49,2.464,0.0416565659689643
50,2.472,0.0413609357923093
51,2.479,0.035352820971368
52,2.487,0.0336654548861528
53,2.494,0.0382909301116618
54,2.502,0.0296130473876981
55,2.509,0.0414473507670239
56,2.517,0.0356484511480229
57,2.524,0.0430983315997277
58,2.532,0.0558195255090183
59,2.539,0.0436122732914509
60,2.547,0.0507210420008614
61,2.554,0.029676721579593
62,2.562,0.0427390272311778
63,2.569,0.0277664958227456
64,2.577,0.0383546043035567
65,2.585,0.0485470231633066
66,2.592,0.038454663747963
67,2.600,0.0459045441996677
68,2.607,0.0432939023319763
69,2.615,0.0343840636232525
70,2.622,0.0425843899080044
71,2.630,0.0357667032186849
72,2.637,0.0348707163755922
73,2.645,0.036639949278958
74,2.652,0.0231683095366202
75,2.660,0.0339292479668603
76,2.667,0.0326330233461425
77,2.675,0.0268432200402694
78,2.683,0.030199759584444
79,2.690,0.0269023460756004
80,2.698,0.0312230948113265
81,2.705,0.02973129945836
82,2.713,0.0319917332706294
83,2.720,0.059526273108615
84,2.728,0.0371129575616059
85,2.735,0.0451359057403648
86,2.743,0.0442808523063474
87,2.750,0.051566999121751
88,2.758,0.0466595381892788
89,2.765,0.0564562674279674
90,2.773,0.0605405120223697
91,2.780,0.0461092112450442
92,2.788,0.0334562396842124
93,2.796,0.0379225294299841
94,2.803,0.0588122125280792
95,2.811,0.0333743728660618
96,2.818,0.0344113525626361
97,2.826,0.0273980951410679
98,2.833,0.0423842710191919
99,2.841,0.0365671787739352
100,2.848,0.0498614404102801
101,2.856,0.0552691985647837
102,2.863,0.0348343311230808
103,2.871,0.0471325464719267
104,2.878,0.0567200605086749
105,2.886,0.0359804665771893
106,2.894,0.0442717559932196
107,2.901,0.0441216668266102
108,2.909,0.0493293060923012
109,2.916,0.0486334381380211
110,2.924,0.0365080527386043
111,2.931,0.039568962106124
112,2.939,0.0314186655435752
113,2.946,0.044189889175069
114,2.954,1.14161003832732
115,2.961,16.6636588191257
116,2.969,60.2881029775417
117,2.976,100
118,2.984,10.3784566558405
119,2.991,0.141916129264067
120,2.999,0.0982265373110298
121,3.007,0.0997001400377406
122,3.014,0.071169553912256
123,3.022,0.0564198821754561
124,3.029,0.0656799289396018
125,3.037,0.0839180367609302
126,3.044,0.0612409281332137
127,3.052,0.0624825748751645
128,3.059,0.0597809698761946
129,3.067,0.060813401416205
130,3.074,0.0408060606915108
131,3.082,0.0442808523063474
132,3.089,0.0530678907878453
133,3.097,0.0436486585439623
134,3.104,0.0387957754902572
135,3.112,0.050980286925005
136,3.120,0.0727068308308618
137,3.127,0.0773459505260625
138,3.135,0.0462911375076011
139,3.142,0.0333379876135504
140,3.150,0.0382818337985339
141,3.157,0.0686134899233317
142,3.165,0.0535136101311097
143,3.172,0.0467550494771212
144,3.180,0.0549781165446927
145,3.187,0.0464048414216992
146,3.195,0.0397963699343201
147,3.202,0.0360350444559563
148,3.210,0.0478511552090264
149,3.218,0.0370265425868914
150,3.225,0.0325375120583001
151,3.233,0.0283577561760555
152,3.240,0.0330878390025347
153,3.248,0.0470233907143926
154,3.255,0.0537091808633584
155,3.263,0.0627691087386916
156,3.270,0.0316005918061321
157,3.278,0.0431483613219308
158,3.285,0.0411562687469328
159,3.293,0.0167736014077454
160,3.300,0.0326330233461425
161,3.308,0.054023003666269
162,3.315,0.0455998177098849
163,3.323,0.0404922378886002
164,3.331,0.0500069814203256
165,3.338,0.021244439310081
166,3.346,0.028794379206192
167,3.353,0.0301542780188048
168,3.361,0.021303565345412
169,3.368,0.0279074886762272
170,3.376,0.0197753847399341
171,3.383,0.0191113538816015
172,3.391,0.026634004838329
173,3.398,0.0290172388778242
174,3.406,0.00794562951717225
175,3.413,0.0236231251930124
176,3.421,0.0222723226935275
177,3.429,0.0380089444046986
178,3.436,0.0280712223125284
179,3.444,0.0216856104967815
180,3.451,0.0144403970904533
181,3.459,0.0206213418608237
182,3.466,0.0268341237271415
183,3.474,0.0277483031964899
184,3.481,0.0515260657126757
185,3.489,0.0814256469639008
186,3.496,0.0494793952589106
187,3.504,0.0310548130184614
188,3.511,0.0142903079238438
189,3.519,0.0216037436786309
190,3.526,0.0226634641580248
191,3.534,0.0179151887052899
192,3.542,0.0238960145868477
193,3.549,0.0175740769629957
194,3.557,0.0230182203700107
195,3.564,0.0204439637548307
196,3.572,0.045126809427237
197,3.579,0.0115113842632873
198,3.587,0.0431210723825473
199,3.594,0.0155455991354864
200,3.602,0.0206759197395907
201,3.609,0.0101605817638024
202,3.617,0.0134670915857739
203,3.624,0.023764118046494
204,3.632,0.030495389761099
205,3.640,0.0219357591077972
206,3.647,0.00761816224456984
207,3.655,0.000955112878423682
208,3.662,0.0136717586311504
209,3.670,0.0216719660270897
210,3.677,0.0225543084004907
211,3.685,0.0246009788542557
212,3.692,0.0166417048673917
213,3.700,0.0196525845127082
214,3.707,0.017615010372071
215,3.715,0.0134125137070068
216,3.722,0.0121799632781839
217,3.730,0.0066312122701987
218,3.737,0.0170510389581447
219,3.745,0.0234866804960947
220,3.753,0.0187520495130516
221,3.760,0.0129076683284115
222,3.768,0.0262110262778842
223,3.775,0.0258517219093343
224,3.783,0.0293947358726298
225,3.790,0.020894231254659
226,3.798,0.0140856408784673
227,3.805,0.0210898019869077
228,3.813,0.023354783955741
229,3.820,0.0179379294881095
230,3.828,0.0213490469110512
231,3.835,0.0246100751673835
232,3.843,0.0189157831493528
233,3.851,0.015390961812313
234,3.858,0.0101332928244189
235,3.866,0.00714515396192192
236,3.873,0.00608998163909195
237,3.881,0.0195707176945576
238,3.888,0.0308319533468292
239,3.896,0.0148360867115145
240,3.903,0.0231410205972366
241,3.911,0.0144222044641976
242,3.918,0.0106472345161421
243,3.926,0.0158457774687053
244,3.933,0.0200528222903334
245,3.941,0.0205713121386205
246,3.948,0.0228954201427848
247,3.956,0.0142584708278964
248,3.964,0.046941523896242
249,3.971,0.0680222295700218
250,3.979,0.0381544854147441
251,3.986,0.022595241809566
252,3.994,0.02072140130523
253,4.001,0.0300587667309624
254,4.009,0.0163460746907367
255,4.016,0.0187156642605402
256,4.024,0.0102106114860055
257,4.031,0.0331196760984821
258,4.039,0.0183427154222986
259,4.046,0.0283077264538524
260,4.054,0.0181244039072303
261,4.061,0.0119116220409125
262,4.069,0.0236640586020877
263,4.077,0.0163460746907367
264,4.084,0.0224587971126483
265,4.092,0.0154819249435915
266,4.099,0.0242462226422697
267,4.107,0.025224076303513
268,4.114,0.0130577574950209
269,4.122,0.0142311818885129
270,4.129,0.020662275269899
271,4.137,0.0258653663790261
272,4.144,0.0152818060547789
273,4.152,0.013812751484632
274,4.159,0.0128667349193362
275,4.167,0.0224633452692122
276,4.175,0.027275294913842
277,4.182,0.0231091835012892
278,4.190,0.0138218477977598
279,4.197,0.0142175374188211
280,4.205,0.016796342190565
281,4.212,0.0128258015102609
282,4.220,0.0181335002203582
283,4.227,0.0133670321413676
284,4.235,0.0202574893357099
285,4.242,0.0157821032768104
286,4.250,0.0104562119404574
287,4.257,0.0183381672657347
288,4.265,0.0219266627946694
289,4.272,0.0279984518075056
290,4.280,0.011706954995536
291,4.288,0.0169009497915352
292,4.295,0.0182790412304037
293,4.303,0.0151499095144252
294,4.310,0.0130668538081487
295,4.318,0.0141584113834901
296,4.325,0.00983766264776392
297,4.333,0.0188248200180744
298,4.340,0.022827197794326
299,4.348,0.0179925073668766
300,4.355,0.0136672104745865
301,4.363,0.0144858786560925
302,4.370,0.0257834995608755
303,4.378,0.0197935773661898
304,4.386,0.0145450046914235
305,4.393,0.00842318595638409
306,4.401,0.0153090949941624
307,4.408,0.0213717876938709
308,4.416,0.0803750227976348
309,4.423,0.11341738023453
310,4.431,0.048697112329916
311,4.438,0.0294629582210886
312,4.446,0.0392551393032133
313,4.453,0.0261200631466057
314,4.461,0.0198845404974683
315,4.468,0.0247829051168126
316,4.476,0.0309911388265665
317,4.483,0.0199845999418746
318,4.491,0.0170828760540921
319,4.499,0.0172920912560326
320,4.506,0.0277073697874146
321,4.514,0.0270933686512851
322,4.521,0.02715704284318
323,4.529,0.0267613532221188
324,4.536,0.00462547522550897
325,4.544,0.024291704207909
326,4.551,0.012934957267795
327,4.559,0.0289262757465458
328,4.566,0.0275436361511134
329,4.574,0.0172238689075737
330,4.581,0.0149679832518683
331,4.589,0.0251513057984903
332,4.597,0.0184882564323441
333,4.604,0.0309956869831304
334,4.612,0.022122233526918
335,4.619,0.019020390750323
336,4.627,0.0238095996121332
337,4.634,0.017151098402551
338,4.642,0.0169327868874827
339,4.649,0.0269114423887282
340,4.657,0.0111065983290982
341,4.664,0.0185883158767504
342,4.672,0.0121936077478757
343,4.679,0.0208123644365084
344,4.687,0
345,4.694,0.0135307657776688
346,4.702,0.0159276442868559
347,4.710,0.0174922101448451
348,4.717,0.0138764256765269
349,4.725,0.0172420615338294
350,4.732,0.0173512172913635
351,4.740,0.0161505039584881
352,4.747,0.0105198861323523
353,4.755,0.0201847188306871
354,4.762,0.0118343033793258
355,4.770,0.0108382570918268
356,4.777,0.0317097475636662
357,4.785,0.00695867954280111
358,4.792,0.0217583810018043
359,4.800,0.0166462530239556
360,4.807,0.0134079655504429
361,4.815,0.0257016327427249
362,4.823,0.024932994283422
363,4.830,0.0111566280513014
364,4.838,0.0355665843298723
365,4.845,0.0267886421615023
366,4.853,0.00917817994599519
367,4.860,0.0127211939092907
368,4.868,0.0283759488023112
369,4.875,0.0271752354694357
370,4.883,0.0245873343845639
371,4.890,0.0156820438324041
372,4.898,0.0202665856488377
373,4.905,0.025929040570921
374,4.913,0.0170555871147086
375,4.921,0.0155001175698472
376,4.928,0.0178014847911919
377,4.936,0.0150362056003271
378,4.943,0.0148815682771537
379,4.951,0.0194524656238956
380,4.958,0.00514396507379611
381,4.966,0.0080593334312703
382,4.973,0.0101605817638024
383,4.981,0.0124710452982749
384,4.988,0.00912815022379204
385,4.996,0.0222177448147604
386,5.003,0.0190294870634509
387,5.011,0.00630829315416022
388,5.018,0.024701038298662
389,5.026,0.0109610573190527
390,5.034,0.0133715802979315
391,5.041,0.0203257116841687
392,5.049,0.0262701523132152
393,5.056,0.0281348965044233
394,5.064,0.0299177738774808
395,5.071,0.0218857293855941
396,5.079,0.0209760980728096
397,5.086,0.0271024649644129
398,5.094,0.022595241809566
399,5.101,0.0252331726166409
400,5.109,0.0260427444850191
401,5.116,0.0181835299425613
402,5.124,0.0179606702709291
403,5.132,0.0269751165806231
404,5.139,0.0180197963062601
405,5.147,0.0124164674195079
406,5.154,0.011356746940114
407,5.162,0.00639470812887474
408,5.169,0.00131441724697354
409,5.177,0.0206986605224104
410,5.184,0.0103334117132315
411,5.192,0.0192887319875944
412,5.199,0.0138855219896548
413,5.207,0.00541685446763145
414,5.214,0.00977398845586901
415,5.222,0.00734982100729843
416,5.229,0.0147405754236722
417,5.237,0.0166189640845721
418,5.245,0.0227362346630475
419,5.252,0.0195707176945576
420,5.260,0.011820658909634
421,5.267,0.0181971744122531
422,5.275,0.0220494630218953
423,5.282,0.0379179812734202
424,5.290,0.00561242519988011
425,5.297,0.0109792499453084
426,5.305,0.025110372389415
427,5.312,0.0260836778940944
428,5.320,0.01240737110638
429,5.327,0.0214763952948411
430,5.335,0.0190931612553458
431,5.343,0.02095335728999
432,5.350,0.0187656939827434
433,5.358,0.0267749976918105
434,5.365,0.0326830530683456
435,5.373,0.0187475013564877
436,5.380,0.0118433996924537
437,5.388,0.0110884057028426
438,5.395,0.0168691126955878
439,5.403,0.0170282981753251
440,5.410,0.0270660797119016
441,5.418,0.0189385239321724
442,5.425,0.0112794282785273
443,5.433,0.00456180103361406
444,5.440,0.0233502357991771
445,5.448,0.0215855510523752
446,5.456,0.0212398911535171
447,5.463,0.0342749078657184
448,5.471,0.0282849856710327
449,5.478,0.0301178927662934
450,5.486,0.0345023156939145
451,5.493,0.0250557945106479
452,5.501,0.0236777030717795
453,5.508,0.0133488395151119
454,5.516,0.0148724719640259
455,5.523,0.0242507707988337
456,5.531,0.0291946169838172
457,5.538,0.0173603136044914
458,5.546,0.0231592132234923
459,5.554,0.00609452979565587
460,5.561,0.00845047489576762
461,5.569,0.027916584989355
462,5.576,0.00715425027504977
463,5.584,0.0305363231701743
464,5.591,0.020366645093244
465,5.599,0.00752265095672747
466,5.606,0.0191340946644211
467,5.614,0.022122233526918
468,5.621,0.015099879792222
469,5.629,0.0124937860810945
470,5.636,0.0124528526720192
471,5.644,0.0276209548127001
472,5.651,0.0125756528992451
473,5.659,0.0180334407759519
474,5.667,0.0142266337319489
475,5.674,0.0118070144399423
476,5.682,0.0174967583014091
477,5.689,0.00271979762522553
478,5.697,0.0161914373675634
479,5.704,0.0219630480471808
480,5.712,0.00943742487013876
481,5.719,0.0262837967829069
482,5.727,0.0254469359751452
483,5.734,0.0350935760472244
484,5.742,0.0233957173648163
485,5.749,0.0240688445362768
486,5.757,0.0291354909484862
487,5.764,0.0217765736280599
488,5.772,0.0234912286526586
489,5.780,0.0170692315844004
490,5.787,0.0375677732179981
491,5.795,0.0175285953973565
492,5.802,0.0110702130765869
493,5.810,0.0179834110537487
494,5.817,0.0167781495643093
495,5.825,0.0227862643852507
496,5.832,0.0263065375657265
497,5.840,0.0202211040831985
498,5.847,0.0163915562563759
499,5.855,0.0207987199668166
500,5.862,0.0124801416114028
501,5.870,0.0212626319363367
502,5.878,0.0249648313793695
503,5.885,0.0128985720152836
504,5.893,0.0131214316869158
505,5.900,0.0285578750648681
506,5.908,0.0108246126221351
507,5.915,0.0108155163090072
508,5.923,0.0204621563810864
509,5.930,0.0198936368105961
510,5.938,0.0152226800194479
511,5.945,0.0148224422418228
512,5.953,0.0103561524960511
513,5.960,0.0155410509789225
514,5.968,0.0233866210516884
515,5.975,0.0272571022875863
516,5.983,0.020252941179146
517,5.991,0.0235048731223504
518,5.998,0.0191841243866242
519,6.006,0.0148451830246424
520,6.013,0.0135489584039245
521,6.021,0.0209670017596818
522,6.028,0.0215127805473524
523,6.036,0.0148997609034094
524,6.043,0.0247738088036847
525,6.051,0.0200209851943859
526,6.058,0.0266976790302239
527,6.066,0.0288080236758838
528,6.073,0.0259699739799963
529,6.081,0.0200255333509499
530,6.089,0.0237413772636744
531,6.096,0.0134398026463904
532,6.104,0.0138809738330908
533,6.111,0.0306045455186331
534,6.119,0.0238095996121332
535,6.126,0.017151098402551
536,6.134,0.0301633743319327
537,6.141,0.0297040105189765
538,6.149,0.0370947649353502
539,6.156,0.0283623043326194
540,6.164,0.0298268107462024
541,6.171,0.0322282374119534
542,6.179,0.0189703610281199
543,6.186,0.0307091531196033
544,6.194,0.0268841534493447
545,6.202,0.0273980951410679
546,6.209,0.0221540706228655
547,6.217,0.0175695288064318
548,6.224,0.0203393561538605
549,6.232,0.025519706480168
550,6.239,0.0266794864039682
551,6.247,0.0337518698608673
552,6.254,0.0210033870121932
553,6.262,0.0246373641067671
554,6.269,0.0169646239834302
555,6.277,0.0187247605736681
556,6.284,0.0171783873419345
557,6.292,0.0238596293343364
558,6.300,0.018083470498155
559,6.307,0.0183427154222986
560,6.315,0.0112521393391438
561,6.322,0.0152681615850871
562,6.330,0.0206349863305154
563,6.337,0.0234321026173277
564,6.345,0.0192387022653913
565,6.352,0.0196753252955278
566,6.360,0.0123891784801243
567,6.367,0.020716853148666
568,6.375,0.0196207474167608
569,6.382,0.0231228279709809
570,6.390,0.0239642369353066
571,6.397,0.00976944029930509
572,6.405,0.0226816567842805
573,6.413,0.0301178927662934
574,6.420,0.022945449864988
575,6.428,0.0163915562563759
576,6.435,0.0140674482522117
577,6.443,0.0207259494617939
578,6.450,0.0306818641802198
579,6.458,0.0245554972886165
580,6.465,0.0324010673613824
581,6.473,0.0245782380714361
582,6.480,0.0164734230745265
583,6.488,0.0211261872394191
584,6.495,0.0175149509276648
585,6.503,0.0269432794846757
586,6.510,0.0250285055712644
587,6.518,0.0230955390315974
588,6.526,0.0185337379979833
589,6.533,0.0206395344870794
590,6.541,0.0263292783485462
591,6.548,0.0160049629484426
592,6.556,0.0177287142861691
593,6.563,0.0213444987544873
594,6.571,0.0272980356966616
595,6.578,0.0258426255962065
596,6.586,0.0242644152685254
597,6.593,0.0261564483991171
598,6.601,0.0231273761275449
599,6.608,0.0215537139564277
600,6.616,0.0260063592325077
601,6.624,0.0163142375947893
602,6.631,0.0217947662543156
603,6.639,0.0293356098372988
604,6.646,0.0306591233974002
605,6.654,0.03464785670396
606,6.661,0.0279666147115582
607,6.669,0.0328831719571582
608,6.676,0.0298222625896385
609,6.684,0.020716853148666
610,6.691,0.0208078162799445
611,6.699,0.0227180420367919
612,6.706,0.0130804982778405
613,6.714,0.0267340642827352
614,6.721,0.0188111755483826
615,6.729,0.017560432493304
616,6.737,0.0211580243353665
617,6.744,0.0158366811555774
618,6.752,0.0281576372872429
619,6.759,0.0371720835969369
620,6.767,0.0159049035040363
621,6.774,0.0395962510455075
622,6.782,0.0229863832740633
623,6.789,0.0307091531196033
624,6.797,0.025110372389415
625,6.804,0.0152090355497561
626,6.812,0.0222450337541439
627,6.819,0.0298540996855859
628,6.827,0.012348245071049
629,6.835,0.0102742856779005
630,6.842,0.0270251463028263
631,6.850,0.0401738669291256
632,6.857,0.0210306759515767
633,6.865,0.0284805564032814
634,6.872,0.0284851045598453
635,6.880,0.0190385833765787
636,6.887,0.0278483626408962
637,6.895,0.0174785656751534
638,6.902,0.0253059431216636
639,6.910,0.0296084992311341
640,6.917,0.0129167646415393
641,6.925,0.031896221982787
642,6.932,0.0267977384746302
643,6.940,0.0311002945841006
644,6.948,0.0228954201427848
645,6.955,0.0276527919086475
646,6.963,0.0228772275165291
647,6.970,0.0280894149387841
648,6.978,0.0286033566305073
649,6.985,0.021658321557398
650,6.993,0.0306500270842723
651,7.000,0.0355802287995641
652,7.008,0.0304317155692041
653,7.015,0.0281348965044233
654,7.023,0.0606906011889791
655,7.030,0.0974078691295238
656,7.038,0.0731343575478705
657,7.046,0.0518808219246616
658,7.053,0.0489745498803153
659,7.061,0.0413654839488733
660,7.068,0.0315414657708011
661,7.076,0.0310502648618975
662,7.083,0.0217356402189846
663,7.091,0.0312640282204018
664,7.098,0.02481474221276
665,7.106,0.0219630480471808
666,7.113,0.0401875113988174
667,7.121,0.0277801402924374
668,7.128,0.0279029405196633
669,7.136,0.0382090632935112
670,7.143,0.0287443494839889
671,7.151,0.0222495819107079
672,7.159,0.0407469346561798
673,7.166,0.0641562964906879
674,7.174,0.0548553163174668
675,7.181,0.0386957160458509
676,7.189,0.0381317446319245
677,7.196,0.0519990739953236
678,7.204,0.0259745221365602
679,7.211,0.0435531472561199
680,7.219,0.0433848654632548
681,7.226,0.0704282043923367
682,7.234,0.0956249917564662
683,7.241,0.0785966935811412
684,7.249,0.0765864083798875
685,7.257,0.0605314157092418
686,7.264,0.053204335484763
687,7.272,0.0471552872547463
688,7.279,0.0420113221809502
689,7.287,0.0363625117285587
690,7.294,0.0239323998393591
691,7.302,0.0409197646056089
692,7.309,0.0338519293052736
693,7.317,0.0493702395013765
694,7.324,0.0343294857444855
