#"+EI TIC Scan ACE-TPU.d "
#Point,X(Minutes),Y(Counts)
0,2.095,0.255208808665898
1,2.102,0.224547951244038
2,2.110,0.210471891976506
3,2.117,0.176154152105246
4,2.125,0.173270232447993
5,2.132,0.154506673674863
6,2.140,0.136733049705711
7,2.147,0.124686582798848
8,2.155,0.102483113588148
9,2.162,0.12056411457406
10,2.170,0.1039567151685
11,2.177,0.0871911070043131
12,2.185,0.0878781850417777
13,2.193,0.0884432163225875
14,2.200,0.0832584892898773
15,2.208,0.0852338386475881
16,2.215,0.0836743523125532
17,2.223,0.062722992420128
18,2.230,0.0697610220538941
19,2.238,0.0652814540596345
20,2.245,0.0636360829699165
21,2.253,0.0384221270950625
22,2.260,0.043855467891329
23,2.268,0.0510788277852008
24,2.275,0.0575473058879107
25,2.283,0.10683159432526
26,2.290,0.24735261373752
27,2.298,0.166842436597501
28,2.306,0.113259390175751
29,2.313,0.0981662746027615
30,2.321,0.0648475100359726
31,2.328,0.0841128165864616
32,2.336,0.0627681949225927
33,2.343,0.0621896028910436
34,2.351,0.0695756917937885
35,2.358,0.0670353111552679
36,2.366,0.0655255475729443
37,2.373,0.0536644109261862
38,2.381,0.0535785261715031
39,2.388,0.216366298297913
40,2.396,0.294064879784623
41,2.404,0.0852835614002994
42,2.411,0.0423592650597448
43,2.419,0.0439323121455191
44,2.426,0.0502787434915742
45,2.434,0.0515624945615739
46,2.441,0.0339787211027747
47,2.449,0.0501883384866446
48,2.456,0.0449584089514696
49,2.464,0.0496142667053419
50,2.471,0.0403206321985833
51,2.479,0.037292064533443
52,2.486,0.0472592163269269
53,2.494,0.0464094092805891
54,2.501,0.0399002489256608
55,2.509,0.0304619664110149
56,2.517,0.0434215238676671
57,2.524,0.0447640381908711
58,2.532,0.0378435350635134
59,2.539,0.0403296726990762
60,2.547,0.0411297569927028
61,2.554,0.0427480065809419
62,2.562,0.0491667619309406
63,2.569,0.0347019611422112
64,2.577,0.0469654000609058
65,2.584,0.0453064682204484
66,2.592,0.0286493460621772
67,2.599,0.0386164978556611
68,2.607,0.0438283463898502
69,2.615,0.0410981152409775
70,2.622,0.0359359894594997
71,2.630,0.0390097596271047
72,2.637,0.0450714152076316
73,2.645,0.0201422350983057
74,2.652,0.0478332881082296
75,2.660,0.028685508064149
76,2.667,0.0270401369744311
77,2.675,0.0369168837629854
78,2.682,0.038426647345309
79,2.690,0.0308326269312261
80,2.697,0.0316779137273174
81,2.705,0.0315513467204161
82,2.712,0.0358003819521053
83,2.720,0.0427208850794631
84,2.728,0.0505409180058699
85,2.735,0.0391950898872103
86,2.743,0.0360670767166475
87,2.750,0.037499996044781
88,2.758,0.0298472123774939
89,2.765,0.0578411221539318
90,2.773,0.0500256094777714
91,2.780,0.0434802871208714
92,2.788,0.0336939453372466
93,2.795,0.0283374487951702
94,2.803,0.0459483437554483
95,2.810,0.0321344590022117
96,2.818,0.022641933484608
97,2.825,0.0342047336150986
98,2.833,0.0446329509337232
99,2.841,0.0447504774401317
100,2.848,0.0347833256466478
101,2.856,0.0370072887679149
102,2.863,0.0365281422417883
103,2.871,0.0383000803384076
104,2.878,0.0535559249202707
105,2.886,0.0540938346996016
106,2.893,0.0406551307168226
107,2.901,0.0523444978542146
108,2.908,0.0359857122122109
109,2.916,0.056679417840587
110,2.923,0.0413422087542873
111,2.931,0.0466987052963636
112,2.939,0.0299828198848882
113,2.946,0.0599611195195299
114,2.954,1.17045551782201
115,2.961,16.7740293903959
116,2.969,60.4030734266286
117,2.976,100
118,2.984,12.4879959104392
119,2.991,0.142089546247788
120,2.999,0.0879414685452284
121,3.006,0.0653130958113598
122,3.014,0.0577823589007276
123,3.021,0.0584739571884387
124,3.029,0.0693406387809717
125,3.036,0.0832765702908632
126,3.044,0.0576377108928403
127,3.052,0.0601012472771708
128,3.059,0.0536644109261862
129,3.067,0.0499397247230883
130,3.074,0.0428971748390757
131,3.082,0.0455550819840047
132,3.089,0.0460342285101314
133,3.097,0.0430463430972095
134,3.104,0.026642354952741
135,3.112,0.046721306547596
136,3.119,0.068861492254845
137,3.127,0.0633151452024166
138,3.134,0.0389735976251328
139,3.142,0.051743304571433
140,3.150,0.0589079012121006
141,3.157,0.0676229436873101
142,3.165,0.0538904234385101
143,3.172,0.0547040684828761
144,3.180,0.0529682923882286
145,3.187,0.0369575660152037
146,3.195,0.0426802028272448
147,3.202,0.0688795732558309
148,3.210,0.080948641413927
149,3.217,0.074299353301358
150,3.225,0.0671799591631552
151,3.232,0.0577778386504811
152,3.240,0.0657108778330499
153,3.247,0.0642598775039305
154,3.255,0.0732280539929427
155,3.263,0.0681066104636832
156,3.270,0.0455686427347442
157,3.278,0.0456409667386878
158,3.285,0.0506358432610459
159,3.293,0.0453109884706949
160,3.300,0.0449041659485119
161,3.308,0.0511330707881585
162,3.315,0.0593056832337906
163,3.323,0.0386888218596047
164,3.330,0.0287261903163673
165,3.338,0.0453381099721738
166,3.345,0.148246127083491
167,3.353,0.116486848851737
168,3.361,0.0508980177753417
169,3.368,0.0392854948921398
170,3.376,0.0277181745114028
171,3.383,0.0193557115554186
172,3.391,0.0354116404309082
173,3.398,0.0267960434611213
174,3.406,0.031465461965733
175,3.413,0.027569006253269
176,3.421,0.0168243714173909
177,3.428,0.0186957550194328
178,3.436,0.024694127096509
179,3.443,0.0308868699341838
180,3.451,0.0214621481702773
181,3.458,0.0221040237052771
182,3.466,0.0228815067476714
183,3.474,0.0309637141883739
184,3.481,0.0339832413530212
185,3.489,0.0872408297570243
186,3.496,0.0390594823798159
187,3.504,0.0242330615713683
188,3.511,0.0164582311474262
189,3.519,0.0155813025996095
190,3.526,0.0241968995693964
191,3.534,0.0130770839630607
192,3.541,0.0180177174824611
193,3.549,0.0206349423751718
194,3.556,0.00677133486922396
195,3.564,0.00995811129299091
196,3.572,0.0197037708243974
197,3.579,0.0170639446804542
198,3.587,0.0072956838978154
199,3.594,0.0116486848851737
200,3.602,0.0166164399060529
201,3.609,0.0122589186684482
202,3.617,0.0150750345720039
203,3.624,0.00273475139911916
204,3.632,0.00791947843182936
205,3.639,0.0253495633822483
206,3.647,0.0171543496853838
207,3.654,0.0169238169228134
208,3.662,0.0127968284477791
209,3.669,0.00561415080612561
210,3.677,0.0232386065171431
211,3.685,0.0281521185350646
212,3.692,0.0126295791886594
213,3.700,0.0238036377979529
214,3.707,0.0111650181088005
215,3.715,0.00776126967320263
216,3.722,0.0281340375340787
217,3.730,0.0240386908107697
218,3.737,0.00846642871165319
219,3.745,0.0152287230803842
220,3.752,0.00534745604158341
221,3.760,0.0102474073087655
222,3.767,0.017213112938588
223,3.775,0.0144783615394689
224,3.782,0.0117526506408427
225,3.790,0.0161372933799263
226,3.798,0.0274831214985859
227,3.805,0.00678941587020987
228,3.813,0.023464619029467
229,3.820,0.0168379321681303
230,3.828,0.0201060730963339
231,3.835,0.0363111702299573
232,3.843,0.00881448798063199
233,3.850,0.0121820744142581
234,3.858,0.0180583997346794
235,3.865,0.0284097727991139
236,3.873,0.0165305551513698
237,3.880,0.0236770707910515
238,3.888,0.0101841238053148
239,3.896,0.0123176819216524
240,3.903,0.0242421020718612
241,3.911,0.0111650181088005
242,3.918,0.0262897754335157
243,3.926,0.0119425011511947
244,3.933,0.0157711531099615
245,3.941,0.0107491550861246
246,3.948,0.0215480329249604
247,3.956,0.0303263589036205
248,3.963,0.0305749726671768
249,3.971,0.0655617095749161
250,3.978,0.0339561198515423
251,3.986,0.0198845808342565
252,3.993,0.0131855699689762
253,4.001,0.0122815199196806
254,4.009,0.0144331590370041
255,4.016,0.0162593401365812
256,4.024,0.0095512887708079
257,4.031,0.00630122884359026
258,4.039,0.0282696450414731
259,4.046,0.0167204056617219
260,4.054,0.0248658966058752
261,4.061,0.00720075864263937
262,4.069,0.0191658610450665
263,4.076,0.013316657226124
264,4.084,0.0157033493562644
265,4.091,0.01556774184887
266,4.099,0.00480954626225253
267,4.107,0.0303625209055924
268,4.114,0.0135923924911592
269,4.122,0.0127606664458072
270,4.129,0.0163226236400319
271,4.137,0.00803248468799131
272,4.144,0.0214305064185519
273,4.152,0.01588867961637
274,4.159,0.0177826644696442
275,4.167,0.0130002397088706
276,4.174,0.0196450075711931
277,4.182,0.0221266249565095
278,4.189,0.0113503483689061
279,4.197,0.0117300493896103
280,4.204,0.0213762634155942
281,4.212,0.00563223180711152
282,4.220,0.0080144036870054
283,4.227,0.00685721962390704
284,4.235,0.00676681461897748
285,4.242,0.0247664511004527
286,4.250,0.01772390121644
287,4.257,0.0191929825465454
288,4.265,0.0136827974960887
289,4.272,0.0217740454372843
290,4.280,0.00956936977179381
291,4.287,0.0119560619019342
292,4.295,0.00792399868207584
293,4.302,0.0236499492895726
294,4.310,0.0213446216638689
295,4.318,0.0236951517920374
296,4.325,0.0112870648654554
297,4.333,0.0244907158354175
298,4.340,0.017940873228271
299,4.348,0.00628314784260434
300,4.355,0.0160152466232714
301,4.363,0.0178504682233414
302,4.370,0.0108847625935189
303,4.378,0.00350771419126689
304,4.385,0.00779743167517446
305,4.393,0.00595316957461145
306,4.400,0.0160242871237643
307,4.408,0.0303082779026346
308,4.415,0.0979854645929024
309,4.423,0.12032002106075
310,4.431,0.0288437168227758
311,4.438,0.0282244425390083
312,4.446,0.0173532406962288
313,4.453,0.0201557958490452
314,4.461,0.0210779268993267
315,4.468,0.0128013486980255
316,4.476,0.0141212617699971
317,4.483,0.0156626671040461
318,4.491,0.00526157128690033
319,4.498,0.0116712861364061
320,4.506,0.0122679591689411
321,4.513,0.0161146921286939
322,4.521,0.00934787750971639
323,4.528,0.00656340335788598
324,4.536,0.0101796035550683
325,4.544,0.00552826605144253
326,4.551,0.0103784945659134
327,4.559,0.0146410905483421
328,4.566,0.015680748105032
329,4.574,0.0235505037841501
330,4.581,0.0261180059241496
331,4.589,0.0135426697384479
332,4.596,0.00375632795482317
333,4.604,0.014243308526652
334,4.611,0.0135562304891874
335,4.619,0.0285408600562617
336,4.626,0.016182495882391
337,4.634,0.00832630095401237
338,4.642,0.00922583075306149
339,4.649,0.0132985762251381
340,4.657,0.010762715836864
341,4.664,0.0215706341761928
342,4.672,0.0183522160007005
343,4.679,0.00596221007510441
344,4.687,0.00592604807313259
345,4.694,0.0107898373383429
346,4.702,0
347,4.709,0.0171453091848908
348,4.717,0.00758045966334351
349,4.724,0.0154095330902433
350,4.732,0.0332961633155565
351,4.739,0.00968689627820224
352,4.747,0.0205987803732
353,4.755,0.00734540665052666
354,4.762,0.00970497727918815
355,4.770,0.00579496081598473
356,4.777,0.0177691037189048
357,4.785,0.00462421600214694
358,4.792,0.0131810497187297
359,4.800,0.0109164043452442
360,4.807,0.0154999380951729
361,4.815,0.0184968640085878
362,4.822,0.0204179703633409
363,4.830,0.0143879565345393
364,4.837,0.0151157168242222
365,4.845,0.019681169573165
366,4.853,0.00697022588006899
367,4.860,0.00927555350577274
368,4.868,0.00154140533404898
369,4.875,0.0202235996027423
370,4.883,0.00888229173432916
371,4.890,0.00283419690454167
372,4.898,0.0245042765861569
373,4.905,0.0264299031911565
374,4.913,0.0379429805689359
375,4.920,0.0707916391100911
376,4.928,0.0459664247564342
377,4.935,0.0208473941367563
378,4.943,0.00204767336165451
379,4.950,0.00634191109580856
380,4.958,0.0127923081975326
381,4.966,0.0141574237719689
382,4.973,0.0199252630864748
383,4.981,0.00605713533028045
384,4.988,0.00552374580119605
385,4.996,0.00947444451661777
386,5.003,0.00799632268601948
387,5.011,0.0165621969030952
388,5.018,0.0133980217305606
389,5.026,0.0177510227179189
390,5.033,0.0211050484008055
391,5.041,0.0349415344052745
392,5.048,0.268606830396459
393,5.056,5.17415416738369
394,5.064,9.20860407937216
395,5.071,1.62404002880484
396,5.079,0.284572354267019
397,5.086,0.169495823492184
398,5.094,0.148774996362329
399,5.101,0.10962962922783
400,5.109,0.0952913954460016
401,5.116,0.0933024853375513
402,5.124,0.0656430740793527
403,5.131,0.0684727507336479
404,5.139,0.0426711623267518
405,5.146,0.0551154112553056
406,5.154,0.0518156285753767
407,5.161,0.0535785261715031
408,5.169,0.0493701731920321
409,5.177,0.0604854685481214
410,5.184,0.037102214023091
411,5.192,0.0498176779664334
412,5.199,0.0466128205416806
413,5.207,0.0429062153395687
414,5.214,0.0304574461607684
415,5.222,0.0379746223206612
416,5.229,0.0342544563678099
417,5.237,0.0304755271617543
418,5.244,0.0396697161630904
419,5.252,0.0304710069115078
420,5.259,0.0254490088876708
421,5.267,0.0219367744461575
422,5.274,0.0192110635475313
423,5.282,0.0179815554804893
424,5.290,0.0230758775082699
425,5.297,0.0166119196558064
426,5.305,0.03145642146524
427,5.312,0.0197082910746438
428,5.320,0.0205626183712282
429,5.327,0.0069883068810549
430,5.335,0.032902901544113
431,5.342,0.0147134145522857
432,5.350,0.0288346763222828
433,5.357,0.00735896740126609
434,5.365,0.0247890523516851
435,5.372,0.0288391965725293
436,5.380,0.0202190793524958
437,5.388,0.0174436457011584
438,5.395,0.0359269489590067
439,5.403,0.0194415963101016
440,5.410,0.0189353282824961
441,5.418,0.0285679815577406
442,5.425,0.0408042989749564
443,5.433,0.104010958171458
444,5.440,0.0998387671939584
445,5.448,0.0456002844864695
446,5.455,0.0388967533709427
447,5.463,0.0446013091819979
448,5.470,0.0429514178420334
449,5.478,0.0566929785913264
450,5.485,0.0285318195557688
451,5.493,0.0297974896247826
452,5.501,0.0231888837644319
453,5.508,0.0287397510671068
454,5.516,0.0168514929188698
455,5.523,0.0283600500464026
456,5.531,0.0328893407933735
457,5.538,0.0305162094139726
458,5.546,0.0176380164617569
459,5.553,0.0231436812619671
460,5.561,0.0190076522864398
461,5.568,0.0204767336165451
462,5.576,0.0288120750710504
463,5.583,0.0254264076364384
464,5.591,0.0253043608797835
465,5.599,0.0246670055950301
466,5.606,0.020191957851017
467,5.614,0.0339877616032677
468,5.621,0.0331515153076693
469,5.629,0.0111333763570752
470,5.636,0.0262988159340087
471,5.644,0.0173532406962288
472,5.651,0.0197896555790804
473,5.659,0.0282154020385153
474,5.666,0.0164672716479192
475,5.674,0.0368671610102741
476,5.681,0.0319717299933385
477,5.689,0.0263214171852411
478,5.696,0.0203320856086578
479,5.704,0.0331243938061904
480,5.712,0.0290923305863321
481,5.719,0.0287171498158744
482,5.727,0.0452431847169978
483,5.734,0.0365869054949925
484,5.742,0.0329571445470707
485,5.749,0.0222170299614391
486,5.757,0.0282606045409801
487,5.764,0.0615341666053043
488,5.772,0.0523806598561864
489,5.779,0.0350861824131618
490,5.787,0.0132578939729198
491,5.794,0.0157485518587292
492,5.802,0.0109209245954907
493,5.810,0.0454375554775963
494,5.817,0.0416676667720337
495,5.825,0.0284730563025646
496,5.832,0.0226735752363334
497,5.840,0.0290426078336208
498,5.847,0.0206846651278831
499,5.855,0.0243731893290091
500,5.862,0.0211140889012985
501,5.870,0.0130770839630607
502,5.877,0.0164130286449614
503,5.885,0.0269768534709804
504,5.892,0.0142161870251731
505,5.900,0.0102112453067937
506,5.907,0.0195410418155242
507,5.915,0.0195817240677425
508,5.923,0.0172944774430246
509,5.930,0.0177103404657006
510,5.938,0.0187093157701722
511,5.945,0.0109796878486949
512,5.953,0.00895461573827281
513,5.960,0.019681169573165
514,5.968,0.0131765294684832
515,5.975,0.0259823984167552
516,5.983,0.0199885465899255
517,5.990,0.0255303733921074
518,5.998,0.021525431673728
519,6.005,0.0189082067810172
520,6.013,0.0220497807023194
521,6.021,0.0189308080322496
522,6.028,0.038530613100978
523,6.036,0.0662442673621343
524,6.043,0.0505951610088276
525,6.051,0.0333775278199931
526,6.058,0.0191975027967918
527,6.066,0.0129821587078847
528,6.073,0.0155587013483771
529,6.081,0.0234103760265093
530,6.088,0.0348194876486196
531,6.096,0.0180719604854188
532,6.103,0.021516391173235
533,6.111,0.0156671873542926
534,6.118,0.0270175357231987
535,6.126,0.0264027816896777
536,6.134,0.0337979110929156
537,6.141,0.0405647257118931
538,6.149,0.0407771774734775
539,6.156,0.0204315311140803
540,6.164,0.0226057714826362
541,6.171,0.0348872914023168
542,6.179,0.0400268159325622
543,6.186,0.0368400395087953
544,6.194,0.0234194165270022
545,6.201,0.0239076035536219
546,6.209,0.0278854237705224
547,6.216,0.028893439575487
548,6.224,0.0319129667401343
549,6.231,0.0135923924911592
550,6.239,0.028495657553797
551,6.247,0.0224159209722841
552,6.254,0.0263937411891847
553,6.262,0.0226148119831292
554,6.269,0.0265609904483044
555,6.277,0.0185601475120384
556,6.284,0.0157621126094686
557,6.292,0.0163361843907713
558,6.299,0.0226600144855939
559,6.307,0.0157801936104545
560,6.314,0.0305523714159444
561,6.322,0.0325684030258736
562,6.329,0.0503691484965037
563,6.337,0.0379881830714007
564,6.345,0.0185872690135173
565,6.352,0.0365417029925277
566,6.360,0.0248387751043963
567,6.367,0.0185737082627779
568,6.375,0.0229357497506291
569,6.382,0.032997826799289
570,6.390,0.0235640645348895
571,6.397,0.0374231517905909
572,6.405,0.0241381363161922
573,6.412,0.0173803621977077
574,6.420,0.0281114362828463
575,6.427,0.0189308080322496
576,6.435,0.0206123411239394
577,6.442,0.0212994191614041
578,6.450,0.0272887507379874
579,6.458,0.0231798432639389
580,6.465,0.0351042634141477
581,6.473,0.0328486585411552
582,6.480,0.0469880013121382
583,6.488,0.0876838142811792
584,6.495,0.0676003424360777
585,6.503,0.0412156417473859
586,6.510,0.0430779848489348
587,6.518,0.0695756917937885
588,6.525,0.0619726308792126
589,6.533,0.0360489957156616
590,6.540,0.0448996456982654
591,6.548,0.0538497411862918
592,6.556,0.0436927388824558
593,6.563,0.0409670279838296
594,6.571,0.0338250325943945
595,6.578,0.0424677510656603
596,6.586,0.0524303826088977
597,6.593,0.0536101679232284
598,6.601,0.0267915232108748
599,6.608,0.0282380032897477
600,6.616,0.0234058557762628
601,6.623,0.0283781310473885
602,6.631,0.040072018435027
603,6.638,0.0321389792524582
604,6.646,0.0288346763222828
605,6.653,0.0445335054283007
606,6.661,0.0310993216957683
607,6.669,0.0248432953546428
608,6.676,0.0327763345372116
609,6.684,0.0274786012483394
610,6.691,0.0288256358217899
611,6.699,0.0267237194571776
612,6.706,0.0125301336832369
613,6.714,0.0213627026648548
614,6.721,0.0235866657861219
615,6.729,0.0210327243968619
616,6.736,0.0350861824131618
617,6.744,0.00956032927130085
618,6.751,0.00997167204373035
619,6.759,0.0322384247578807
620,6.767,0.126896985169375
621,6.774,0.209613044429675
622,6.782,0.104838163966563
623,6.789,0.0497769957142151
624,6.797,0.039855046423196
625,6.804,0.0278221402670718
626,6.812,0.0264163424404171
627,6.819,0.0313750569608034
628,6.827,0.0285725018079871
629,6.834,0.0334769733254157
630,6.842,0.0238397997999247
631,6.849,0.031759278231754
632,6.857,0.0197580138273551
633,6.864,0.02131750016239
634,6.872,0.0446058294322444
635,6.880,0.0349686559067534
636,6.887,0.0675687006843523
637,6.895,0.912426073002313
638,6.902,7.17676515433106
639,6.910,9.3812957197886
640,6.917,1.75732412757249
641,6.925,0.656887286068421
642,6.932,0.456441309138603
643,6.940,0.338241285443452
644,6.947,0.259665775408926
645,6.955,0.221822240345412
646,6.962,0.178775897248203
647,6.970,0.145009627907012
648,6.977,0.183011371729153
649,6.985,1.63171089347312
650,6.993,8.86040016238547
651,7.000,8.26008832840197
652,7.008,1.67823330900987
653,7.015,0.569018141527137
654,7.023,0.452115429652724
655,7.030,0.429016950893222
656,7.038,0.349275216295104
657,7.045,0.276576031581
658,7.053,0.253237979558434
659,7.060,0.220741900536504
660,7.068,0.197146194249889
661,7.075,0.185108767843518
662,7.083,0.190144326618095
663,7.091,0.162380949604227
664,7.098,0.157264026325214
665,7.106,0.15145550475849
666,7.113,0.156283132021728
667,7.121,0.135051516614022
668,7.128,0.141519994716731
669,7.136,0.107943575885893
670,7.143,0.133944055303634
671,7.151,0.122055797155397
672,7.158,0.140421573906837
673,7.166,0.157806456354792
674,7.173,0.121332557115961
675,7.181,0.136403071437718
676,7.188,0.290421558085961
677,7.196,0.681115827389543
678,7.204,0.449077821487091
679,7.211,0.210404088222809
680,7.219,0.148445018094336
681,7.226,0.184995761587356
682,7.234,0.211746602546013
683,7.241,0.180104850820667
684,7.249,0.126399757642263
685,7.256,0.119827313783884
686,7.264,0.101827677302409
687,7.271,0.0991697701574796
688,7.279,0.0958564267268113
689,7.286,0.0907892262005095
690,7.294,0.0770386249507236
691,7.302,0.0941206506321638
692,7.309,0.0983380441121277
693,7.317,0.0801801988720258
694,7.324,0.0928097780606852
695,7.332,0.0803564886316384
