#"+EI TIC Scan ACE-SLA.d "
#Point,X(Minutes),Y(Counts)
0,2.095,0.0879301937566435
1,2.102,0.0858368579139974
2,2.110,0.0829414970135664
3,2.117,0.0795215411067855
4,2.125,0.0687219458318329
5,2.132,0.0623814081108542
6,2.140,0.0753298252387399
7,2.148,0.0602779839027014
8,2.155,0.0742957677743003
9,2.163,0.171325667218013
10,2.170,0.102709649224
11,2.178,0.0702150239268287
12,2.185,0.0821394719557815
13,2.193,0.0639249280333836
14,2.200,0.0490546772764662
15,2.208,0.0426788302762139
16,2.215,0.0480307081775332
17,2.223,0.0438289039439809
18,2.230,0.0406510688093615
19,2.238,0.0387342793630832
20,2.245,0.0401516947167785
21,2.253,0.0476372619227708
22,2.261,0.0488831750628518
23,2.268,0.0407015106368952
24,2.276,0.0546032783051667
25,2.283,0.0536247068510141
26,2.291,0.0337556709855128
27,2.298,0.0357582115385983
28,2.306,0.0311730494157903
29,2.313,0.0345173425812707
30,2.321,0.0384164958496212
31,2.328,0.0278287562503099
32,2.336,0.0409032779470297
33,2.343,0.0417355681013348
34,2.351,0.042749448834761
35,2.358,0.021513439443098
36,2.366,0.0307846473437813
37,2.374,0.0211906117468827
38,2.381,0.0207063702025598
39,2.389,0.106260753882369
40,2.396,0.364381673737518
41,2.404,0.185741941527127
42,2.411,0.0385022469564284
43,2.419,0.0454632191560709
44,2.426,0.0299523571894762
45,2.434,0.0422147654629044
46,2.441,0.0302600523374314
47,2.449,0.0249132186188654
48,2.456,0.0347443308051721
49,2.464,0.0450748170840619
50,2.472,0.0359347579349661
51,2.479,0.0471984180232282
52,2.487,0.301531156630601
53,2.494,0.701171667814134
54,2.502,0.557790773049759
55,2.509,0.444866653750196
56,2.517,0.323110170449493
57,2.524,0.275548571268022
58,2.532,0.219245403374972
59,2.539,0.181873053355297
60,2.547,0.154523494466557
61,2.554,0.129660717675225
62,2.562,0.134321542539333
63,2.569,0.112273419724379
64,2.577,0.106447388644243
65,2.585,0.083753610436858
66,2.592,0.0803437428955839
67,2.600,0.0663612683032585
68,2.607,0.0808784262674404
69,2.615,0.0763588385204262
70,2.622,0.0681822182772229
71,2.630,0.0621191106076793
72,2.637,0.0691355688176088
73,2.645,0.121221799928847
74,2.652,0.230695698225108
75,2.660,0.133363147816194
76,2.667,0.0727421594862641
77,2.675,0.0961875209239006
78,2.683,0.153751734505292
79,2.690,0.0867649875406164
80,2.698,0.0656954361798144
81,2.705,0.0605301930403696
82,2.713,0.0583208409943961
83,2.720,0.0638896187541101
84,2.728,0.0609589485744055
85,2.735,0.0552186686010771
86,2.743,0.0520105683699375
87,2.750,0.0506284622955158
88,2.758,0.0564090957308711
89,2.765,0.0551783151390502
90,2.773,0.0717686322148648
91,2.780,0.0541543460401173
92,2.788,0.0404190364027068
93,2.796,0.0379272101225449
94,2.803,0.0477835432226184
95,2.811,0.0660687057035634
96,2.818,0.0303861569062655
97,2.826,0.0382803029152804
98,2.833,0.0513346478809867
99,2.841,0.0424619304178192
100,2.848,0.0520458776492111
101,2.856,0.0301137710375839
102,2.863,0.0231780197517082
103,2.871,0.0273848681680139
104,2.878,0.0486713193872105
105,2.886,0.0545578806603864
106,2.894,0.0410899127089042
107,2.901,0.0278237120675565
108,2.909,0.0490294563626993
109,2.916,0.0520660543802245
110,2.924,0.0413269892983123
111,2.931,0.0408679686677562
112,2.939,0.0270418637407851
113,2.946,0.0403332852958996
114,2.954,0.248072907810448
115,2.961,7.16279499578735
116,2.969,43.6818458399893
117,2.976,100
118,2.984,90.2544674182869
119,2.991,1.31885202269459
120,2.999,0.104858471076934
121,3.007,0.0777762538741215
122,3.014,0.0662502962826845
123,3.022,0.0592489706210151
124,3.029,0.0496246699275963
125,3.037,0.082230267245342
126,3.044,0.0611758484328002
127,3.052,0.0483989335185288
128,3.059,0.0439600526955684
129,3.067,0.0642326231813388
130,3.074,0.0479399128879727
131,3.082,0.0293924529038528
132,3.089,0.0416447728117743
133,3.097,0.0344568123882304
134,3.104,0.0251956928530538
135,3.112,0.0346787564293784
136,3.120,0.0583006642633826
137,3.127,0.0613927482911948
138,3.135,0.0516272104806819
139,3.142,0.0239699564439863
140,3.150,0.0351478654254413
141,3.157,0.0313546399949114
142,3.165,0.0513296036982334
143,3.172,0.041432917136133
144,3.180,0.0499828069030852
145,3.187,0.0253671950666682
146,3.195,0.0283785721704266
147,3.202,0.0151880342703794
148,3.210,0.0357582115385983
149,3.218,0.0240405750025334
150,3.225,0.0295639551174672
151,3.233,0.0193141757626313
152,3.240,0.0320709139458891
153,3.248,0.019435236148712
154,3.255,0.0515616361048881
155,3.263,0.0343307078193963
156,3.270,0.0112888810020289
157,3.278,0.0214781301638245
158,3.285,0.00846413866014501
159,3.293,0.0223104203181295
160,3.300,0.0270368195580317
161,3.308,0.040449301499227
162,3.315,0.0425123722453529
163,3.323,0.0403332852958996
164,3.331,0.0153292713874736
165,3.338,0.027677430767709
166,3.346,0.0135688516065495
167,3.353,0.0263255897898074
168,3.361,0.0288577695319962
169,3.368,0.0196117825450797
170,3.376,0.00379826961328319
171,3.383,0.030739249699001
172,3.391,0.0228249269589727
173,3.398,0.00368729759270918
174,3.406,0.0216597207429456
175,3.413,0.0164137706794469
176,3.421,0.00962934487617212
177,3.429,0.0139976071405855
178,3.436,0.0126104568834103
179,3.444,0.0201716868307032
180,3.451,0.0249838371774125
181,3.459,0.0218211345910532
182,3.466,0.0255084321837624
183,3.474,0.00813626678117634
184,3.481,0.030088550123817
185,3.489,0.0670926748024963
186,3.496,0.0588958778282796
187,3.504,0.0177151698298148
188,3.511,0.0145524672434555
189,3.519,0
190,3.526,0.0120253316840201
191,3.534,0.00889289419418096
192,3.542,0.00896855693548142
193,3.549,0.00587647290766921
194,3.557,0.0238942937026859
195,3.564,0.0134679679514822
196,3.572,0.0265929314757357
197,3.579,0.0115713552362173
198,3.587,0.0152536086461731
199,3.594,0.00913501496634244
200,3.602,0.0117983434601187
201,3.609,0.0143557441160743
202,3.617,0.016111119714245
203,3.624,0.00913501496634244
204,3.632,0.0274453983610542
205,3.640,0.0139622978613119
206,3.647,0.0219068856978604
207,3.655,0.00698619311340932
208,3.662,0.0178059651193754
209,3.670,0.0108349045542262
210,3.677,0.0208879607816809
211,3.685,0.0105372977717777
212,3.692,0.0136646910788634
213,3.700,0.00998748185166098
214,3.707,0.00751078811975919
215,3.715,0.0105171210407642
216,3.722,0.0179219813227028
217,3.730,0.00855493394970556
218,3.737,0.0175537559817072
219,3.745,0.0218110462255465
220,3.753,0.00423711351282587
221,3.760,0.00323836532765977
222,3.768,0.015889175673097
223,3.775,0.00439348317818016
224,3.783,0.0172208399199851
225,3.790,0.0173620770370793
226,3.798,0.00739477191643181
227,3.805,0.0208778724161741
228,3.813,0.0189661271526491
229,3.820,0.00407569966471822
230,3.828,0.0185928576289002
231,3.835,0.0194655012452322
232,3.843,0.013049300782953
233,3.851,0.0178059651193754
234,3.858,0.0129080636658588
235,3.866,0.0053014360737857
236,3.873,0.0236067752857441
237,3.881,0.00823210625349026
238,3.888,0.00783361581597449
239,3.896,0.0140732698818859
240,3.903,0.0148399856603973
241,3.911,0.00659274685864692
242,3.918,0.0147895438328636
243,3.926,0.0153696248495005
244,3.933,0.0194301919659586
245,3.941,0.0192889548488644
246,3.948,0.0280960979362382
247,3.956,0.0184415321462993
248,3.964,0.0282978652463728
249,3.971,0.0857561509899436
250,3.979,0.0620081385871052
251,3.986,0.0170140284270972
252,3.994,0.0288729020802563
253,4.001,0.0541190367608437
254,4.009,0.175134025196803
255,4.016,0.141953391045173
256,4.024,0.0712389930257616
257,4.031,0.0473547876885825
258,4.039,0.0411302661709311
259,4.046,0.0384618934944015
260,4.054,0.020862739867914
261,4.061,0.0205701772682189
262,4.069,0.0356976813455579
263,4.077,0.0350318492221139
264,4.084,0.013755486368424
265,4.092,0.0212460977571697
266,4.099,0.0179623347847297
267,4.107,0.0235412009099504
268,4.114,0.0123935570250157
269,4.122,0.0202927472167839
270,4.129,0.0189459504216357
271,4.137,0.0252310021323274
272,4.144,0.0114906483121635
273,4.152,0.0279447724536373
274,4.159,0.0220380344494479
275,4.167,0.0209232700609544
276,4.175,0.0190417898939496
277,4.182,0.0229358989795467
278,4.190,0.0207265469335732
279,4.197,0.0211553024676092
280,4.205,0.00775795307467403
281,4.212,0.010597827964818
282,4.220,0.00959907977965194
283,4.227,0.023258726675762
284,4.235,0.0125146174110964
285,4.242,0.00985128891732014
286,4.250,0.0133115982861279
287,4.257,0.0252461346805875
288,4.265,0.0190720549904698
289,4.272,0.019268778117851
290,4.280,0.0228249269589727
291,4.288,0.0124591314008094
292,4.295,0.0282272466878257
293,4.303,0.0221590948355286
294,4.310,0.0156319223526754
295,4.318,0.0183507368567387
296,4.325,0.0213772465087572
297,4.333,0.0124187779387825
298,4.340,0.0178513627641557
299,4.348,0.014628129984756
300,4.355,0.0189308178733756
301,4.363,0.0031778351346194
302,4.370,0.016817305299716
303,4.378,0.016317931207133
304,4.386,0.0147290136398233
305,4.393,0.0222398017595824
306,4.401,0.0274605309093143
307,4.408,0.021014065350515
308,4.416,0.0783966883527853
309,4.423,0.159789621261069
310,4.431,0.0784370418148122
311,4.438,0.0286005162115746
312,4.446,0.0152889179254467
313,4.453,0.0208677840506674
314,4.461,0.00897360111823479
315,4.468,0.02402039827152
316,4.476,0.0105877395993113
317,4.483,0.0155663479768817
318,4.491,0.00768229033337357
319,4.499,0.0233898754273495
320,4.506,0.0276169005746686
321,4.514,0.0537054137750679
322,4.521,0.0706387352781113
323,4.529,0.0524292355384668
324,4.536,0.0503712089750942
325,4.544,0.0584015479184499
326,4.551,0.046850369413246
327,4.559,0.0560509587553822
328,4.566,0.0376497800711099
329,4.574,0.04477216611886
330,4.581,0.0209484909747212
331,4.589,0.0287417533286688
332,4.597,0.0414984915119267
333,4.604,0.015238476097913
334,4.612,0.0196773569208735
335,4.619,0.00598744492824322
336,4.627,0.0244340212572958
337,4.634,0.0296900596863013
338,4.642,0.0368275782823115
339,4.649,0.0353345001873157
340,4.657,0.0141388442576797
341,4.664,0.0210443304470351
342,4.672,0.0278691097123368
343,4.679,0.00843891774637819
344,4.687,0.0152283877324063
345,4.694,0.0229661640760669
346,4.702,0.021624411463672
347,4.710,0.0194856779762456
348,4.717,0.0302751848856915
349,4.725,0.0247064071259775
350,4.732,0.0229358989795467
351,4.740,0.0389612675869845
352,4.747,0.0384820702254149
353,4.755,0.0899579552234959
354,4.762,0.0524292355384668
355,4.770,0.0304164220027857
356,4.777,0.0330293086690283
357,4.785,0.0121110827908273
358,4.792,0.0236319961995109
359,4.800,0.0308703984505885
360,4.807,0.0279800817329108
361,4.815,0.0442122618332366
362,4.823,0.0274302658127941
363,4.830,0.0450193310737749
364,4.838,0.0211452141021024
365,4.845,0.0245803025571434
366,4.853,0.182105085761952
367,4.860,0.431645850753629
368,4.868,0.215714475447617
369,4.875,0.0702503332061022
370,4.883,0.0565301561169518
371,4.890,0.0563586539033374
372,4.898,0.0484998171735961
373,4.905,0.0465325858997841
374,4.913,0.0341995590678088
375,4.921,0.0428351999415682
376,4.928,0.0214125557880307
377,4.936,0.0443534989503308
378,4.943,0.024519772364103
379,4.951,0.0329889552070014
380,4.958,0.0270418637407851
381,4.966,0.0299422688239695
382,4.973,0.0371504059785268
383,4.981,0.0290948461214043
384,4.988,0.0264012525311079
385,4.996,0.0242776515919416
386,5.003,0.0197580638449273
387,5.011,0.0626689265277959
388,5.018,0.439842647727845
389,5.026,0.577276451026004
390,5.034,0.201570587007184
391,5.041,0.0975040526225286
392,5.049,0.0741898399364796
393,5.056,0.0576600530537054
394,5.064,0.0512993386017132
395,5.071,0.0577205832467457
396,5.079,0.0419423795942227
397,5.086,0.0389158699422043
398,5.094,0.0307039404197275
399,5.101,0.0288375928009827
400,5.109,0.0304012894545256
401,5.116,0.0295740434829739
402,5.124,0.03112765177101
403,5.132,0.0387998537388769
404,5.139,0.0366358993376837
405,5.147,0.0907044942709938
406,5.154,0.391277256178456
407,5.162,0.356583367200817
408,5.169,0.124682109297655
409,5.177,0.0648782785737694
410,5.184,0.0661040149828369
411,5.192,0.059027026579867
412,5.199,0.0744975350844348
413,5.207,0.0618215038252308
414,5.214,0.0439600526955684
415,5.222,0.0464216138792101
416,5.229,0.0393849789382671
417,5.237,0.0534078069926194
418,5.245,0.456089960376431
419,5.252,1.45668936061301
420,5.260,0.852315559835937
421,5.267,0.26591922639185
422,5.275,0.158145217683472
423,5.282,0.137741498446114
424,5.290,0.0965002602546092
425,5.297,0.0910323661499624
426,5.305,0.112384391744953
427,5.312,0.0916174913493527
428,5.320,0.0762579548653589
429,5.327,0.0881470936150382
430,5.335,0.0681822182772229
431,5.343,0.0550572547529695
432,5.350,0.0450949938150753
433,5.358,0.0549412385496421
434,5.365,0.0378212822847242
435,5.373,0.0486814077527172
436,5.380,0.0537255905060813
437,5.388,0.0421340585388506
438,5.395,0.0457053399282324
439,5.403,0.0539172694507092
440,5.410,0.0417254797358281
441,5.418,0.0387746328251101
442,5.425,0.0175688885299673
443,5.433,0.0278943306261036
444,5.440,0.0364442203930558
445,5.448,0.0449335799669677
446,5.456,0.0383357889255674
447,5.463,0.0355413116802037
448,5.471,0.0391731232626258
449,5.478,0.0404089480372
450,5.486,0.036363513469002
451,5.493,0.0288628137147495
452,5.501,0.0358439626454055
453,5.508,0.046295509310376
454,5.516,0.0174881816059134
455,5.523,0.0431580276377835
456,5.531,0.0279750375501575
457,5.538,0.0408881453987696
458,5.546,0.0302650965201848
459,5.554,0.0351125561461677
460,5.561,0.0411252219881778
461,5.569,0.0330192203035216
462,5.576,0.0355715767767238
463,5.584,0.0407368199161687
464,5.591,0.0463963929654433
465,5.599,0.0431428950895234
466,5.606,0.0523535727971663
467,5.614,0.660631571025347
468,5.621,7.2948870095497
469,5.629,11.6310127856414
470,5.636,2.88286141556817
471,5.644,0.948195385611882
472,5.651,0.567798431632433
473,5.659,0.423297728296811
474,5.667,0.328663815660947
475,5.674,0.281283807058597
476,5.682,0.243497834053147
477,5.689,0.20088962233548
478,5.697,0.207083878756611
479,5.704,0.164833804014433
480,5.712,0.139622978613119
481,5.719,0.136056741406491
482,5.727,0.141070659063335
483,5.734,0.147834908135596
484,5.742,0.125640504020794
485,5.749,0.104929089635481
486,5.757,0.0814736398323374
487,5.764,0.0985078449904481
488,5.772,0.0779729770015027
489,5.780,0.0693827337725236
490,5.787,0.084126879960607
491,5.795,0.0821949579660685
492,5.802,0.0643688161156797
493,5.810,0.0721116366420936
494,5.817,0.0664470194100657
495,5.825,0.0713297883153222
496,5.832,0.0736097589198427
497,5.840,0.0550622989357228
498,5.847,0.0464216138792101
499,5.855,0.0549967245599291
500,5.862,0.0545578806603864
501,5.870,0.0542955831572115
502,5.878,0.0581997806083153
503,5.885,0.0443534989503308
504,5.893,0.0503106787820538
505,5.900,0.0560005169278486
506,5.908,0.0482930056807082
507,5.915,0.0346283146018447
508,5.923,0.0629766216757512
509,5.930,0.0605957674161633
510,5.938,0.0665226821513661
511,5.945,0.0502652811372735
512,5.953,0.0483989335185288
513,5.960,0.0496751117551299
514,5.968,0.0464770998894971
515,5.975,0.0391428581661056
516,5.983,0.0382248169049934
517,5.991,0.0349814073945802
518,5.998,0.0530294932861171
519,6.006,0.0429411277793888
520,6.013,0.0564040515481177
521,6.021,0.0450445519875417
522,6.028,0.0488730866973451
523,6.036,0.0545528364776331
524,6.043,0.0554910544697588
525,6.051,0.0480508849085467
526,6.058,0.0442324385642501
527,6.066,0.0507545668643499
528,6.073,0.0524241913557134
529,6.081,0.0447923428498735
530,6.089,0.0471479761956945
531,6.096,0.0297203247828215
532,6.104,0.0270317753752784
533,6.111,0.0576449205054453
534,6.119,0.0579727923844139
535,6.126,0.0405148758750207
536,6.134,0.0839553777469926
537,6.141,0.125201660121251
538,6.149,0.0831180434099341
539,6.156,0.0540837274815702
540,6.164,0.0527470190519287
541,6.171,0.0580181900291942
542,6.179,0.0413673427603392
543,6.186,0.047334610957569
544,6.194,0.0508050086918835
545,6.202,0.0420079539700165
546,6.209,0.0369335061201322
547,6.217,0.0502652811372735
548,6.224,0.0511631456673724
549,6.232,0.0573271369919833
550,6.239,0.0489235285248787
551,6.247,0.0559248541865481
552,6.254,0.0527419748691753
553,6.262,0.0441113781781693
554,6.269,0.0324744485661583
555,6.277,0.0478692943294256
556,6.284,0.0567874094373734
557,6.292,0.0630522844170516
558,6.300,0.0482980498634615
559,6.307,0.0513296036982334
560,6.315,0.0549462827323955
561,6.322,0.0405501851542942
562,6.330,0.0366207667894236
563,6.337,0.0338868197371002
564,6.345,0.0425779466211466
565,6.352,0.0287114882321486
566,6.360,0.0317884397117007
567,6.367,0.0405804502508144
568,6.375,0.0433900600444382
569,6.382,0.0318641024530012
570,6.390,0.0372109361715672
571,6.397,0.037347129105908
572,6.405,0.0442677478435236
573,6.413,0.0342247799815756
574,6.420,0.0532312605962517
575,6.428,0.0573725346367636
576,6.435,0.030683763688714
577,6.443,0.0416195518980074
578,6.450,0.0204592052476449
579,6.458,0.0450041985255148
580,6.465,0.0341087637782482
581,6.473,0.0401668272650386
582,6.480,0.0388956932111908
583,6.488,0.0305526149371265
584,6.495,0.0617761061804505
585,6.503,0.0466939997478917
586,6.510,0.0404946991440072
587,6.518,0.0395867462484017
588,6.526,0.0465224975342774
589,6.533,0.053347276799579
590,6.541,0.0644596114052402
591,6.548,0.0579475714706471
592,6.556,0.0603385140957417
593,6.563,0.0502955462337937
594,6.571,0.0461189629140082
595,6.578,0.0523586169799197
596,6.586,0.0447570335705999
597,6.593,0.0476473502882776
598,6.601,0.0451303030943489
599,6.608,0.0512186316776594
600,6.616,0.0790776530244895
601,6.624,0.0632036098996525
602,6.631,0.0471984180232282
603,6.639,0.0467847950374523
604,6.646,0.0599047143789524
605,6.654,0.0390974605213254
606,6.661,0.0523737495281798
607,6.669,0.0444997802501784
608,6.676,0.0419928214217564
609,6.684,0.0535238231959468
610,6.691,0.0514052664395338
611,6.699,0.0467696624891922
612,6.706,0.0562275051517499
613,6.714,0.0488730866973451
614,6.721,0.0277984911537897
615,6.729,0.0358136975488853
616,6.737,0.0547142503257407
617,6.744,0.0561064447656692
618,6.752,0.0421138818078371
619,6.759,0.0433698833134248
620,6.767,0.0429209510483754
621,6.774,0.0449436683324744
622,6.782,0.0465981602755778
623,6.789,0.0343559287331631
624,6.797,0.0311629610502836
625,6.804,0.0582199573393288
626,6.812,0.0344265472917102
627,6.819,0.0432790880238642
628,6.827,0.0574078439160372
629,6.835,0.0463308185896495
630,6.842,0.0447368568395865
631,6.850,0.0510874829260719
632,6.857,0.0453926005975238
633,6.865,0.0299069595446959
634,6.872,0.0513346478809867
635,6.880,0.0436271366338464
636,6.887,0.0583258851771494
637,6.895,0.0633196261029799
638,6.902,0.0626588381622892
639,6.910,0.0481164592843404
640,6.917,0.0695088383413577
641,6.925,0.0516927848564756
642,6.932,0.0644999648672671
643,6.940,0.0720662389973133
644,6.948,0.0761671595757984
645,6.955,0.0594709146621631
646,6.963,0.0581140295015081
647,6.970,0.0669766585991689
648,6.978,0.0468201043167258
649,6.985,0.0765656500133141
650,6.993,0.0856149138728494
651,7.000,0.0907700686467875
652,7.008,0.091607402983846
653,7.015,0.0826136251345977
654,7.023,0.0902858271024645
655,7.030,0.174997832262462
656,7.038,0.207083878756611
657,7.046,0.138397242204052
658,7.053,0.0931811880028956
659,7.061,0.120419774871062
660,7.068,0.116051512606649
661,7.076,0.105307403341983
662,7.083,0.0989214679762239
663,7.091,0.0802680801542834
664,7.098,0.0869062246577106
665,7.106,0.0871735663436389
666,7.113,0.0814282421875571
667,7.121,0.0972619318503671
668,7.128,0.0812819608877096
669,7.136,0.0923741187623573
670,7.143,0.100207734578332
671,7.151,0.0719048251492057
672,7.159,0.0885808933318275
673,7.166,0.136283729630392
674,7.174,0.152082110013929
675,7.181,0.121615246183609
676,7.189,0.0850348328562125
677,7.196,0.086205083254993
678,7.204,0.0925405767932183
679,7.211,0.0750927486493318
680,7.219,0.0805505543884718
681,7.226,0.146705011198842
682,7.234,0.277566244369368
683,7.241,0.251815691413444
684,7.249,0.172314327037672
685,7.257,0.161333141183598
686,7.264,0.156248604968207
687,7.272,0.122755231485869
688,7.279,0.102220363496924
689,7.287,0.0936200319024382
690,7.294,0.0959958419792727
691,7.302,0.0901647667163838
692,7.309,0.111925371114397
693,7.317,0.12944381781683
694,7.324,0.169928428595331
695,7.332,0.193166978540079
