#"+EI TIC Scan ACN-PP.d "
#Point,X(Minutes),Y(Counts)
0,2.095,0.120739700493421
1,2.102,0.117082845541049
2,2.110,0.107750246964683
3,2.117,0.10630274187937
4,2.125,0.0988493604313057
5,2.132,0.0884120869214106
6,2.140,0.122498292197948
7,2.147,0.090576995842867
8,2.155,0.0848504625667567
9,2.162,0.0769780664887336
10,2.170,0.077327245347033
11,2.178,0.0859106965546839
12,2.185,0.0632140707652223
13,2.193,0.074216379154911
14,2.200,0.0719498909292221
15,2.208,0.0698738638989692
16,2.215,0.0600651123340131
17,2.223,0.0608142597027282
18,2.230,0.0760828988701842
19,2.238,0.0724577874503849
20,2.245,0.0657662507840653
21,2.253,0.0601095532796148
22,2.260,0.0565161853923882
23,2.268,0.0577097422171207
24,2.276,0.0591826421284927
25,2.283,0.0540973282103504
26,2.291,0.0726799921783936
27,2.298,0.0658233891426961
28,2.306,0.0513800818221296
29,2.313,0.0672454994019518
30,2.321,0.0589096477483678
31,2.328,0.0549924958288998
32,2.336,0.0637346646994141
33,2.343,0.0755178639903906
34,2.351,0.0619062372232281
35,2.358,0.055208351850394
36,2.366,0.0499198793237866
37,2.373,0.0513229434634987
38,2.381,0.0663058908378007
39,2.389,0.206580561276446
40,2.396,0.354943483814608
41,2.404,0.199495404806225
42,2.411,0.0743433532852017
43,2.419,0.0553734182197719
44,2.426,0.0709214004738675
45,2.434,0.0703627143005884
46,2.441,0.0527767972553272
47,2.449,0.059969881736295
48,2.456,0.0633664397215711
49,2.464,0.0661598705879664
50,2.471,0.0593921494434724
51,2.479,0.0567891797725132
52,2.487,0.0525165002882313
53,2.494,0.0504849142035802
54,2.502,0.0508848827139959
55,2.509,0.0544211122425917
56,2.517,0.0394254674552607
57,2.524,0.068470799759257
58,2.532,0.0570558254461236
59,2.539,0.0670613869130303
60,2.547,0.0619887704079171
61,2.554,0.0645790426658473
62,2.562,0.064813944806885
63,2.569,0.0632140707652223
64,2.577,0.0654107232192513
65,2.584,0.0575065836086556
66,2.592,0.0625792001137688
67,2.600,0.060515870496545
68,2.607,0.0518879783432923
69,2.615,0.0641663767424025
70,2.622,0.0484660255319581
71,2.630,0.0532529502439173
72,2.637,0.047621647565525
73,2.645,0.0492469164332459
74,2.652,0.0686168200090913
75,2.660,0.0813650226902771
76,2.667,0.0570621741526381
77,2.675,0.0596397489975392
78,2.682,0.0405555372148479
79,2.690,0.0651250314260973
80,2.697,0.0598238614864608
81,2.705,0.0470947049248186
82,2.713,0.0616141967235595
83,2.720,0.0748639472193935
84,2.728,0.0545290402533388
85,2.735,0.0552464440894812
86,2.743,0.0594556365086177
87,2.750,0.061322156223891
88,2.758,0.071105512962789
89,2.765,0.074216379154911
90,2.773,0.0805968292020184
91,2.780,0.0434568960919902
92,2.788,0.0694992902146117
93,2.795,0.0588271145636788
94,2.803,0.0809333106472887
95,2.811,0.084367960871652
96,2.818,0.0547321988618039
97,2.826,0.0526371257120074
98,2.833,0.069099321704196
99,2.841,0.062153836777295
100,2.848,0.0480533596085134
101,2.856,0.0685215894113733
102,2.863,0.0646171349049345
103,2.871,0.0648329909264286
104,2.878,0.0637283159928996
105,2.886,0.0782541564981551
106,2.893,0.0835743725573352
107,2.901,0.0592905701392398
108,2.908,0.0793397853121405
109,2.916,0.0634934138518618
110,2.924,0.0558114789692748
111,2.931,0.0626680820049723
112,2.939,0.0735624623839139
113,2.946,1.14985867779299
114,2.954,13.8009515441324
115,2.961,50.212954662617
116,2.969,87.9073330099725
117,2.976,100
118,2.984,14.7739162123109
119,2.991,0.38800119863579
120,2.999,0.150153257775261
121,3.006,0.136973343051087
122,3.014,0.132129279980497
123,3.022,0.0985636686381517
124,3.029,0.11004213001643
125,3.037,0.116441626183081
126,3.044,0.116549554193829
127,3.052,0.085364707794434
128,3.059,0.0884628765735269
129,3.067,0.0835235829052189
130,3.074,0.0700389302683471
131,3.082,0.0692135984214576
132,3.089,0.0698294229533675
133,3.097,0.0870725098468438
134,3.104,0.0671248739781757
135,3.112,0.0853520103814049
136,3.119,0.0860821116305764
137,3.127,0.112670494513448
138,3.135,0.1096358127995
139,3.142,0.0698040281273093
140,3.150,0.069550079866728
141,3.157,0.0698929100185128
142,3.165,0.0819744985156724
143,3.172,0.0729847300910912
144,3.180,0.0749083881649953
145,3.187,0.062058606179577
146,3.195,0.0398825743243072
147,3.202,0.0476533910980977
148,3.210,0.0379970084894903
149,3.217,0.0629601225046409
150,3.225,0.0482946104560657
151,3.233,0.0659694093925304
152,3.240,0.0554623001109754
153,3.248,0.0590810628242602
154,3.255,0.0673280325866408
155,3.263,0.0654805589909112
156,3.270,0.0405301423887897
157,3.278,0.037933521424345
158,3.285,0.042053831952278
159,3.293,0.0519133731693505
160,3.300,0.0629029841460101
161,3.308,0.0534307140263243
162,3.315,0.0599190920841788
163,3.323,0.051005508137772
164,3.330,0.0481104979671442
165,3.338,0.0480533596085134
166,3.346,0.0272549970668976
167,3.353,0.020385696618171
168,3.361,0.0304103042046214
169,3.368,0.0371716766426008
170,3.376,0.0331465967123858
171,3.383,0.0253630825255662
172,3.391,0.0340290669179062
173,3.398,0.0395651389985804
174,3.406,0.0323212648654963
175,3.413,0.0421109703109089
176,3.421,0.0465804596971413
177,3.428,0.0438505158958914
178,3.436,0.0323339622785254
179,3.443,0.0427648870819059
180,3.451,0.0384858588911095
181,3.459,0.0229251792239849
182,3.466,0.0348480500582811
183,3.474,0.0394953032269205
184,3.481,0.0616713350821904
185,3.489,0.0819871959287015
186,3.496,0.0837330902201985
187,3.504,0.0478882932391355
188,3.511,0.0267471005457348
189,3.519,0.0416284686158042
190,3.526,0.0355654538944236
191,3.534,0.0383271412282462
192,3.541,0.0427014000167606
193,3.549,0.0480343134889698
194,3.557,0.0292357934994324
195,3.564,0.018557269141985
196,3.572,0.0218078068774268
197,3.579,0.0302198430091853
198,3.587,0.0332164324840457
199,3.594,0.0190334221305751
200,3.602,0.022937876637014
201,3.609,0.0255408463079732
202,3.617,0.0382573054565863
203,3.624,0.0424284056366356
204,3.632,0.0284295077720865
205,3.639,0.0275851298056534
206,3.647,0.0321625472026329
207,3.654,0.0318705067029643
208,3.662,0.036009863350441
209,3.670,0.0339528824397317
210,3.677,0.0188048686960519
211,3.685,0.0299912895746621
212,3.692,0.0221379396161826
213,3.700,0.0154273568303194
214,3.707,0.034644891449816
215,3.715,0.0423395237454321
216,3.722,0.0304737912697667
217,3.730,0.0236743265927
218,3.737,0.031807019637819
219,3.745,0.0307277395303481
220,3.752,0.0317371838661591
221,3.760,0.0240615976900866
222,3.768,0.0388985248145543
223,3.775,0.0302325404222144
224,3.783,0.0310515235625894
225,3.790,0.0225823490722
226,3.798,0.018735032924392
227,3.805,0.0136814625388223
228,3.813,0.0265502906437842
229,3.820,0.029800828379226
230,3.828,0.0236552804731564
231,3.835,0.0327783717345428
232,3.843,0.0191794423804094
233,3.850,0.0187096380983338
234,3.858,0.0376478296311909
235,3.865,0.0415268893115717
236,3.873,0.0168939080351769
237,3.881,0.0344607789608945
238,3.888,0.0274391095558191
239,3.896,0.0298897102704295
240,3.903,0.0129005716375346
241,3.911,0.0109451700310579
242,3.918,0.0269185156216273
243,3.926,0.0191413501413222
244,3.933,0.024137782168261
245,3.941,0.0331465967123858
246,3.948,0.0340354156244207
247,3.956,0.0277692422945749
248,3.963,0.0452218365030309
249,3.971,0.0751623364255767
250,3.979,0.0717086400816698
251,3.986,0.0406698139321095
252,3.994,0.0226394874308308
253,4.001,0.0251853187431593
254,4.009,0.0402190557695775
255,4.016,0.0305753705739993
256,4.024,0.029337372803665
257,4.031,0.0307213908238336
258,4.039,0.0355845000139672
259,4.046,0.0384033257064206
260,4.054,0.031902250235537
261,4.061,0.0267280544261912
262,4.069,0.0284104616525429
263,4.076,0.0309943852039585
264,4.084,0.0293691163362377
265,4.092,0.030619811519601
266,4.099,0.0395460928790368
267,4.107,0.0129069203440491
268,4.114,0.0397556001940165
269,4.122,0.0477295755762721
270,4.129,0.0338640005485282
271,4.137,0.0331275505928422
272,4.144,0.030988036497444
273,4.152,0.0344734763739236
274,4.159,0.0159352533514822
275,4.167,0.025680517851293
276,4.174,0.0348290039387375
277,4.182,0.0174779890345141
278,4.190,0.013808436669113
279,4.197,0.0194524367605344
280,4.205,0.00351083470253771
281,4.212,0.0213443513018658
282,4.220,0.0529672584507632
283,4.227,0.034740122047534
284,4.235,0.024125084755232
285,4.242,0.0320165269527986
286,4.250,0.0227474154415779
287,4.257,0.0314197485404324
288,4.265,0.0171224614697002
289,4.272,0.0300801714658655
290,4.280,0.0252678519278482
291,4.287,0.0269312130346563
292,4.295,0.0318133683443335
293,4.303,0.025870979046729
294,4.310,0.0272042074147813
295,4.318,0.0314451433664905
296,4.325,0.0281819082180197
297,4.333,0.0257884458620401
298,4.340,0.0172176920674182
299,4.348,0.00976431061935441
300,4.355,0.038574740782313
301,4.363,0.0396222773572112
302,4.370,0.0293437215101795
303,4.378,0.0261312760138249
304,4.385,0.0260741376551941
305,4.393,0.0214078383670111
306,4.400,0.0323847519306417
307,4.408,0.0340925539830515
308,4.416,0.0725911102871901
309,4.423,0.115521063738474
310,4.431,0.0808190339300271
311,4.438,0.039761948900531
312,4.446,0.0407967880624002
313,4.453,0.0285755280219208
314,4.461,0.0370637486318538
315,4.468,0.0327275820824265
316,4.476,0.0286263176740371
317,4.483,0.0230204098217029
318,4.491,0.0344480815478654
319,4.498,0.0413935664747664
320,4.506,0.0250900881454412
321,4.514,0.0193572061628164
322,4.521,0.0329624842234643
323,4.529,0.0210713569217408
324,4.536,0.0163288731553833
325,4.544,0.0265629880568133
326,4.551,0.0282834875222522
327,4.559,0.0348924910038829
328,4.566,0.0330704122342114
329,4.574,0.0185699665550141
330,4.581,0.0268105876108802
331,4.589,0.0278708215988075
332,4.596,0.0211919823455169
333,4.604,0.0303214223134179
334,4.611,0.0210332646826536
335,4.619,0.0354130849380747
336,4.627,0.0241885718203773
337,4.634,0.0283152310548249
338,4.642,0.0269756539802581
339,4.649,0.0236933727122436
340,4.657,0.0305753705739993
341,4.664,0.021750668518796
342,4.672,0.00951036235877302
343,4.679,0.0227537641480925
344,4.687,0.0232743580822843
345,4.694,0.02851838966329
346,4.702,0.0234267270386332
347,4.709,0.0278962164248656
348,4.717,0.0195032264126507
349,4.725,0.0171478562957583
350,4.732,0.0185255256094123
351,4.740,0.0303531658459905
352,4.747,0.0272930893059848
353,4.755,0.0053011699396365
354,4.762,0.0197698720862611
355,4.770,0.0414887970724845
356,4.777,0.0302071455961562
357,4.785,0.0355337103618509
358,4.792,0.0177763782406972
359,4.800,0.0324291928762434
360,4.807,0.0401682661174612
361,4.815,0.0233822860930314
362,4.822,0.0442631818193361
363,4.830,0.0330005764625515
364,4.838,0.0143226818967903
365,4.845,0.0365241085781183
366,4.853,0.0261058811877668
367,4.860,0.0275406888600517
368,4.868,0.034644891449816
369,4.875,0.0184937820768397
370,4.883,0.0278327293597203
371,4.890,0.0436664034069699
372,4.898,0.0259217686988453
373,4.905,0.00994842310827592
374,4.913,0.0171478562957583
375,4.920,0.0263026910897174
376,4.928,0.0137386008974532
377,4.936,0.0283025336417958
378,4.943,0.0143988663749648
379,4.951,0.0202587224878803
380,4.958,0.0193381600432728
381,4.966,0.0183541105335199
382,4.973,0.0296484594228772
383,4.981,0.0249885088412087
384,4.988,0.0437171930590861
385,4.996,0.0349051884169119
386,5.003,0.0398762256177926
387,5.011,0.0266963108936185
388,5.018,0.0393619803901153
389,5.026,0.0317879735182754
390,5.033,0.021845899116514
391,5.041,0.0411586643337286
392,5.049,0.0313181692361998
393,5.056,0.0354511771771619
394,5.064,0.0294135572818394
395,5.071,0.0348797935908538
396,5.079,0.0295976697707609
397,5.086,0.0312483334645399
398,5.094,0.0429807431034001
399,5.101,0.0152368956348833
400,5.109,0.0218141555839413
401,5.116,0.0333116630817637
402,5.124,0.0184747359572961
403,5.131,0.0292929318580632
404,5.139,0.0189699350654298
405,5.146,0.0297690848466533
406,5.154,0.0203603017921129
407,5.162,0.0358130534484904
408,5.169,0.028886614641133
409,5.177,0.025051995906354
410,5.184,0.0243853817223279
411,5.192,0.0250773907324122
412,5.199,0.019198488499953
413,5.207,0.015719397329988
414,5.214,0.0260995324812523
415,5.222,0.0233822860930314
416,5.229,0.0202523737813658
417,5.237,0.0215221150842727
418,5.244,0.0247663041132
419,5.252,0.0325879105391068
420,5.260,0.0304356990306795
421,5.267,0.0239346235597959
422,5.275,0.020385696618171
423,5.282,0.01023411490143
424,5.290,0.0388604325754671
425,5.297,0.0267534492522493
426,5.305,0.0303023761938743
427,5.312,0.0283088823483104
428,5.320,0.0257440049164383
429,5.327,0.0125006031271189
430,5.335,0.0163987089270432
431,5.342,0.0295214852925865
432,5.350,0.0071105512962789
433,5.357,0.0146147223964589
434,5.365,0.0129704074091945
435,5.373,0.031083267095162
436,5.380,0.0252868980473918
437,5.388,0.0259154199923308
438,5.395,0.0193699035758455
439,5.403,0.0445996632646065
440,5.410,0.0194587854670489
441,5.418,0.0267280544261912
442,5.425,0.0370891434579119
443,5.433,0.0321244549635457
444,5.440,0.0277692422945749
445,5.448,0.0247155144610837
446,5.455,0.0211538901064297
447,5.463,0.0193000678041856
448,5.471,0.0238584390816215
449,5.478,0.0397809950200746
450,5.486,0.0193889496953891
451,5.493,0.0313689588883161
452,5.501,0.0262201579050284
453,5.508,0.0246202838633657
454,5.516,0.0174462455019414
455,5.523,0.028067631500758
456,5.531,0.017465291621485
457,5.538,0.0342703177654585
458,5.546,0.0242584075920372
459,5.553,0.0359463762852956
460,5.561,0.0221061960836099
461,5.568,0.0309562929648713
462,5.576,0.0199158923360954
463,5.584,0.020385696618171
464,5.591,0.0304166529111359
465,5.599,0.0212808642367204
466,5.606,0.0243726843092988
467,5.614,0.035832099568034
468,5.621,0.0172176920674182
469,5.629,0.0336671906465777
470,5.636,0.0270200949258598
471,5.644,0.0302007968896417
472,5.651,0.0234203783321186
473,5.659,0.0253503851125372
474,5.666,0.0297436900205952
475,5.674,0.0178017730667554
476,5.682,0.0224807697679675
477,5.689,0.0176049631648048
478,5.697,0.0190778630761769
479,5.704,0.0110023083896887
480,5.712,0.0325752131260777
481,5.719,0.020931685378421
482,5.727,0.0394762571073769
483,5.734,0.0129259664635927
484,5.742,0.0176557528169211
485,5.749,0.0169827899263804
486,5.757,0.0151162702111072
487,5.764,0.0245758429177639
488,5.772,0.0376224348051328
489,5.779,0.0329180432778626
490,5.787,0.0280104931421272
491,5.795,0.0298198744987696
492,5.802,0.029515136586072
493,5.810,0.033184688951473
494,5.817,0.0288993120541621
495,5.825,0.0265058496981825
496,5.832,0.0245567967982203
497,5.840,0.0275851298056534
498,5.847,0.0255281488949441
499,5.855,0.0293691163362377
500,5.862,0.0189572376524007
501,5.870,0.023756859777389
502,5.877,0.0225442568331128
503,5.885,0.0384477666520223
504,5.893,0.0150019934938456
505,5.900,0.00958019813043291
506,5.908,0.0309435955518423
507,5.915,0.0197000363146013
508,5.923,0.0149512038417293
509,5.930,0.0322069881482347
510,5.938,0.0238266955490488
511,5.945,0.00324418902892725
512,5.953,0.0249186730695488
513,5.960,0.0268613772629964
514,5.968,0.01937625228236
515,5.975,0.0204110914442292
516,5.983,0.0252678519278482
517,5.990,0.0315022817251213
518,5.998,0.00526307770054929
519,6.006,0.0297309926075661
520,6.013,0.0113895794870753
521,6.021,0.0207348754764704
522,6.028,0.0292357934994324
523,6.036,0.0195222725321943
524,6.043,0.0219792219533192
525,6.051,0.0117260609323456
526,6.058,0.0370573999253392
527,6.066,0.0485295125971035
528,6.073,0.0239092287337378
529,6.081,0.0259979531770197
530,6.088,0.0239155774402523
531,6.096,0.0211602388129443
532,6.103,0.00591699447154637
533,6.111,0.0248869295369761
534,6.119,0.0328482075062027
535,6.126,0.02742641214279
536,6.134,0.0214014896604966
537,6.141,0.028613620261008
538,6.149,0.0181826954576275
539,6.156,0.0191730936738949
540,6.164,0.0258582816337
541,6.171,0.0299912895746621
542,6.179,0.0235156089298366
543,6.186,0.0397111592484147
544,6.194,0
545,6.201,0.0316356045619266
546,6.209,0.0230077124086739
547,6.217,0.0296675055424208
548,6.224,0.0175986144582903
549,6.232,0.0165764727094502
550,6.239,0.0189762837719443
551,6.247,0.0305182322153684
552,6.254,0.0343084100045457
553,6.262,0.0380604955546357
554,6.269,0.0238139981360198
555,6.277,0.0293564189232086
556,6.284,0.0342512716459149
557,6.292,0.0263471320353191
558,6.299,0.0324863312348742
559,6.307,0.0251599239171011
560,6.314,0.0352099263296096
561,6.322,0.0162526886772089
562,6.330,0.0305880679870283
563,6.337,0.029800828379226
564,6.345,0.0329751816364934
565,6.352,0.0371716766426008
566,6.360,0.0356987767312288
567,6.367,0.0247155144610837
568,6.375,0.0284485538916301
569,6.382,0.0302833300743307
570,6.390,0.0321561984961184
571,6.397,0.0381938183914409
572,6.405,0.0276232220447406
573,6.412,0.0271089768170633
574,6.420,0.0204364862702873
575,6.428,0.0197381285536885
576,6.435,0.0155035413084938
577,6.443,0.0381557261523537
578,6.450,0.0268169363173947
579,6.458,0.0205825065201216
580,6.465,0.033089458353755
581,6.473,0.0259281174053598
582,6.480,0.021299910356264
583,6.488,0.0329370893974062
584,6.495,0.0311023132147056
585,6.503,0.0418189298112403
586,6.510,0.0256551230252348
587,6.518,0.0339465337332172
588,6.525,0.0212173771715751
589,6.533,0.0296611568359063
590,6.541,0.0377875011745107
591,6.548,0.0249631140151506
592,6.556,0.0218585965295431
593,6.563,0.0372224662947171
594,6.571,0.0360543042960427
595,6.578,0.0197063850211158
596,6.586,0.0282073030440778
597,6.593,0.0441679512216181
598,6.601,0.0362066732523916
599,6.608,0.036828846490816
600,6.616,0.0299151050964876
601,6.623,0.0371272356969991
602,6.631,0.0412348488119031
603,6.639,0.0258455842206709
604,6.646,0.0240298541575139
605,6.654,0.0258011432750691
606,6.661,0.0388540838689525
607,6.669,0.0278263806532057
608,6.676,0.0137259034844241
609,6.684,0.0337560725377812
610,6.691,0.0447456835144408
611,6.699,0.0481358927932023
612,6.706,0.0357305202638015
613,6.714,0.0519324192888941
614,6.721,0.0242012692334064
615,6.729,0.026416967806979
616,6.736,0.0275978272186825
617,6.744,0.0329370893974062
618,6.752,0.0452281852095454
619,6.759,0.0385176024236822
620,6.767,0.018639802326674
621,6.774,0.0256741691447784
622,6.782,0.0398635282047636
623,6.789,0.0424220569301211
624,6.797,0.027521642740508
625,6.804,0.0391778679011938
626,6.812,0.0319530398876533
627,6.819,0.0375525990334729
628,6.827,0.0345369634390689
629,6.834,0.0249694627216651
630,6.842,0.015173408569738
631,6.849,0.0346829836889032
632,6.857,0.0304103042046214
633,6.865,0.0291215167821708
634,6.872,0.0223664930507059
635,6.880,0.0337814673638393
636,6.887,0.0373748352510659
637,6.895,0.0456789433720774
638,6.902,0.0380731929676648
639,6.910,0.0425680771799554
640,6.917,0.039215960140281
641,6.925,0.0279660521965255
642,6.932,0.0198016156188338
643,6.940,0.0404793527366734
644,6.947,0.0356733819051706
645,6.955,0.0368669387299032
646,6.963,0.0392477036728537
647,6.970,0.0489675733466064
648,6.978,0.0366193391758363
649,6.985,0.0328418587996882
650,6.993,0.0343401535371183
651,7.000,0.0375906912725601
652,7.008,0.0357749612094032
653,7.015,0.0311086619212202
654,7.023,0.0479200367717081
655,7.030,0.0249821601346942
656,7.038,0.0268105876108802
657,7.045,0.0348924910038829
658,7.053,0.051361035702586
659,7.060,0.0301500072375254
660,7.068,0.0346893323954178
661,7.076,0.0380033571960049
662,7.083,0.0436981469395425
663,7.091,0.0281311185659034
664,7.098,0.030537278334912
665,7.106,0.0474883247287198
666,7.113,0.0379525675438886
667,7.121,0.0483707949342401
668,7.128,0.0521165317778156
669,7.136,0.0505103090296383
670,7.143,0.0547956859269492
671,7.151,0.0479263854782227
672,7.158,0.0350194651341736
673,7.166,0.0485803022492197
674,7.174,0.0557987815562457
675,7.181,0.0508213956488505
676,7.189,0.0532719963634609
677,7.196,0.0393302368575426
678,7.204,0.0382573054565863
679,7.211,0.0423839646910339
680,7.219,0.0359463762852956
681,7.226,0.0476152988590105
682,7.234,0.0705341293764808
683,7.241,0.0500658995736209
684,7.249,0.0425617284734408
685,7.256,0.0338703492550428
686,7.264,0.0514181740612168
687,7.271,0.0505357038556964
688,7.279,0.0387144123256328
689,7.287,0.0458567071544843
690,7.294,0.052560941233833
691,7.302,0.0481104979671442
692,7.309,0.0363019038501096
693,7.317,0.0519133731693505
694,7.324,0.0375589477399875
695,7.332,0.0415332380180862
