#"+EI TIC Scan ACN-End-Blank2.d "
#Point,X(Minutes),Y(Counts)
0,2.095,0.153096371573882
1,2.102,0.13628815284138
2,2.110,0.142670193560978
3,2.117,0.134952208026356
4,2.125,0.114470141052539
5,2.132,0.102969398731898
6,2.140,0.119298419867707
7,2.147,0.10280240563002
8,2.155,0.10484262570079
9,2.162,0.093813820407196
10,2.170,0.0954401880080947
11,2.178,0.0726855627348068
12,2.185,0.092368967047469
13,2.193,0.0754591003399108
14,2.200,0.0852463482238904
15,2.208,0.071233448805433
16,2.215,0.0623392509880183
17,2.223,0.068125924996573
18,2.230,0.0891452741242591
19,2.238,0.0640672665639732
20,2.245,0.0452841728875227
21,2.253,0.0703549198781618
22,2.260,0.0871994414588982
23,2.268,0.0686051225932664
24,2.275,0.0662890008759151
25,2.283,0.0600086081313733
26,2.291,0.0521236294948735
27,2.298,0.070790554056974
28,2.306,0.0593333751542145
29,2.313,0.0650547040359474
30,2.321,0.0719159423522387
31,2.328,0.0610976935784037
32,2.336,0.0585637547716464
33,2.343,0.0407898802761107
34,2.351,0.0449501866837668
35,2.358,0.0521018477859328
36,2.366,0.0500688882848095
37,2.373,0.0703258775995744
38,2.381,0.127132574516678
39,2.389,0.337318805223893
40,2.396,0.227647900707935
41,2.404,0.105946232287114
42,2.411,0.0558846045719517
43,2.419,0.0580772966053061
44,2.426,0.0292600956768826
45,2.434,0.0448993626962387
46,2.441,0.0693747429758345
47,2.449,0.0538080816529471
48,2.456,0.0558192594451298
49,2.464,0.0366005315898673
50,2.471,0.0509909806299619
51,2.479,0.0459448847253878
52,2.486,0.0648586686554819
53,2.494,0.0380236032406536
54,2.502,0.0434109459186305
55,2.509,0.0539823353244719
56,2.517,0.0475857734655803
57,2.524,0.051651692467827
58,2.532,0.0652797816950003
59,2.539,0.0554054069752583
60,2.547,0.0521817140520484
61,2.554,0.0507368606923215
62,2.562,0.0705436946889804
63,2.569,0.0636824563726891
64,2.577,0.0595802345222081
65,2.584,0.0471210970081806
66,2.592,0.0480504499229799
67,2.599,0.0387278784963999
68,2.607,0.057583577869319
69,2.615,0.0455237716858694
70,2.622,0.0456544619395131
71,2.630,0.0320554149909272
72,2.637,0.033398620375598
73,2.645,0.0368764332364483
74,2.652,0.0710446739946144
75,2.660,0.0587380084431712
76,2.667,0.0563710627382919
77,2.675,0.0548608642517431
78,2.682,0.0598924390170234
79,2.690,0.0669424521441333
80,2.697,0.0479923653658049
81,2.705,0.036506144184458
82,2.713,0.0686922494290288
83,2.720,0.0628329697240054
84,2.728,0.0665503813832024
85,2.735,0.0733607957119656
86,2.743,0.0441442634529643
87,2.750,0.0577287892622564
88,2.758,0.0666157265100242
89,2.765,0.0713931813376641
90,2.773,0.0678064599321108
91,2.780,0.05714068312086
92,2.788,0.0438393195277958
93,2.795,0.0405575420474109
94,2.803,0.0801712100407289
95,2.810,0.0714222236162516
96,2.818,0.0505335647422091
97,2.826,0.059638319079383
98,2.833,0.073948901853362
99,2.841,0.0451389614945854
100,2.848,0.0590502129379866
101,2.856,0.0574238453370879
102,2.863,0.0532707994990788
103,2.871,0.0458504973199785
104,2.878,0.0475639917566396
105,2.886,0.0797718787101511
106,2.893,0.0429753117398184
107,2.901,0.0659840569507466
108,2.908,0.0543381032371685
109,2.916,0.0509909806299619
110,2.924,0.0729033798242129
111,2.931,0.136455145943258
112,2.939,1.74077965739405
113,2.946,11.4210067447788
114,2.954,37.7246057220259
115,2.961,75.2748779062608
116,2.969,100
117,2.976,40.0678892304261
118,2.984,1.26023885531601
119,2.991,0.198511234715049
120,2.999,0.153372273220463
121,3.006,0.136629399614783
122,3.014,0.116735438782362
123,3.021,0.0782616802236023
124,3.029,0.10231594746368
125,3.037,0.117214636379055
126,3.044,0.097640140611096
127,3.052,0.0829883110637141
128,3.059,0.102323208033327
129,3.067,0.076061727620601
130,3.074,0.0713133150715486
131,3.082,0.0834675086604075
132,3.089,0.0793798079492202
133,3.097,0.0635009421315174
134,3.104,0.0783778493379522
135,3.112,0.0870324483570202
136,3.119,0.0993754167566977
137,3.127,0.0906554726108079
138,3.135,0.0585201913537652
139,3.142,0.0621286944682591
140,3.150,0.0605458902852416
141,3.157,0.0781309899699587
142,3.165,0.0759382979366042
143,3.172,0.0648949715037162
144,3.180,0.0468451953615996
145,3.187,0.0474478226422897
146,3.195,0.0491685776485977
147,3.202,0.0478544145425144
148,3.210,0.0674506920194142
149,3.217,0.0463587371952594
150,3.225,0.0355913124089525
151,3.232,0.0644375556159635
152,3.240,0.0607709679442946
153,3.248,0.044325777694136
154,3.255,0.0560806399524171
155,3.263,0.0642705625140855
156,3.270,0.0580192120481312
157,3.278,0.044492770796014
158,3.285,0.0449066232658855
159,3.293,0.0769620382568127
160,3.300,0.0579611274909562
161,3.308,0.0585129307841183
162,3.315,0.0729687249510347
163,3.323,0.0326507817019705
164,3.330,0.0614389403518065
165,3.338,0.041886226292788
166,3.345,0.0381325117853566
167,3.353,0.0293980465001731
168,3.361,0.0338487756937039
169,3.368,0.0443039959851954
170,3.376,0.0410948242012793
171,3.383,0.0438030166795614
172,3.391,0.0371232926044418
173,3.398,0.0313729214441215
174,3.406,0.0395047594486149
175,3.413,0.042496114143125
176,3.421,0.0327524296770266
177,3.428,0.0341972830367536
178,3.436,0.0232193017306875
179,3.443,0.043940967502852
180,3.451,0.0260799661715539
181,3.459,0.0286574683961924
182,3.466,0.0454802082679882
183,3.474,0.0661510500526246
184,3.481,0.0518767701268799
185,3.489,0.0835110720782887
186,3.496,0.0631088713705864
187,3.504,0.0277498971903338
188,3.511,0.0175270151275421
189,3.519,0.0126406517551991
190,3.526,0.00808101401696534
191,3.534,0.0364916230451642
192,3.541,0.0185580160173975
193,3.549,0.0214404621672045
194,3.556,0.0285776021300769
195,3.564,0.0244971619885364
196,3.572,0.0153561048031282
197,3.579,0.0351048542426122
198,3.587,0.0356639181054211
199,3.594,0.0472808295404117
200,3.602,0.0413199018603322
201,3.609,0.0277498971903338
202,3.617,0.0154650133478312
203,3.624,0.0240615278097243
204,3.632,0.0228490126786971
205,3.639,0.000450155318105886
206,3.647,0.0107964670648944
207,3.654,0.0369853417811513
208,3.662,0.0206853629239301
209,3.670,0.00967107876962968
210,3.677,0.0345530509494502
211,3.685,0.00638204071959796
212,3.692,0.0267915019969471
213,3.700,0.0282290947870272
214,3.707,0.0268423259844752
215,3.715,0.0133304058716517
216,3.722,0.024685936799355
217,3.730,0.0185507554477506
218,3.737,0.0200609539342994
219,3.745,0.0141290685328073
220,3.752,0.0155448796139468
221,3.760,0.0259855787661446
222,3.767,0.0247875847744112
223,3.775,0.0379146946959506
224,3.783,0.0298046384003978
225,3.790,0.0303491811239129
226,3.798,0.0232483440092749
227,3.805,0.0238146684417307
228,3.813,0.0351847205087278
229,3.820,0.0226529772982317
230,3.828,0.0192913335517313
231,3.835,0.0189210444997409
232,3.843,0.0181514241171728
233,3.850,0.0357800872197711
234,3.858,0.0310534563796593
235,3.865,0.0185580160173975
236,3.873,0.018086078990351
237,3.881,0.0288244614980704
238,3.888,0.0317432104961118
239,3.896,0.0395628440057899
240,3.903,0.0210919548241548
241,3.911,0.0250707469906391
242,3.918,0.0252813035103983
243,3.926,0.00368110881096265
244,3.933,0.035729263232243
245,3.941,0.0348144314567375
246,3.948,0.0374717999474916
247,3.956,0.048210182455211
248,3.963,0.0598706573080828
249,3.971,0.0593769385720957
250,3.978,0.0512886639854835
251,3.986,0.039497498878968
252,3.994,0.0272198756061124
253,4.001,0.0179844310152948
254,4.009,0.0263921706663693
255,4.016,0.0160676406285214
256,4.024,0.0223770756516506
257,4.031,0.0270964459221156
258,4.039,0.0221302162836571
259,4.046,0.0304145262507348
260,4.054,0.040441372933061
261,4.061,0.0313656608744746
262,4.069,0.0293690042215856
263,4.076,0.0262179169948444
264,4.084,0.0132795818841236
265,4.091,0.0398823090702521
266,4.099,0.0260000999054383
267,4.107,0.0247803242047643
268,4.114,0.0345530509494502
269,4.122,0.028069362254796
270,4.129,0.0171712472148455
271,4.137,0.00135046595431766
272,4.144,0.0340157687955819
273,4.152,0.0213533353314421
274,4.159,0.0238654924292588
275,4.167,0.0196616226037216
276,4.174,0.0428446214861747
277,4.182,0.0345312692405096
278,4.189,0.0193494181089062
279,4.197,0.0387423996356937
280,4.205,0.0121977570067401
281,4.212,0.0322514503713927
282,4.220,0.0129165534017802
283,4.227,0.0259420153482634
284,4.235,0.0326580422716173
285,4.242,0.0327088662591454
286,4.250,0.0338923391115851
287,4.257,0.0246641550904144
288,4.265,0.0222972093855351
289,4.272,0.0248021059137049
290,4.280,0.0124954403622618
291,4.287,0.0255281628783918
292,4.295,0.0330138101843139
293,4.302,0.0220939134354227
294,4.310,0.0253030852193389
295,4.318,0.0425832409788874
296,4.325,0.0220430894478947
297,4.333,0.00810279572590594
298,4.340,0.0371523348830293
299,4.348,0.0131198493518925
300,4.355,0.0269004105416501
301,4.363,0.0188266570943316
302,4.370,0.0112829252312346
303,4.378,0.0207724897596926
304,4.385,0.0256661137016824
305,4.393,0.0180715578510573
306,4.400,0.0274812561133996
307,4.408,0.0474115197940554
308,4.416,0.103354208923182
309,4.423,0.122355119689039
310,4.431,0.0337979517061758
311,4.438,0.0349814245586154
312,4.446,0.0320191121426928
313,4.453,0.0230740903377501
314,4.461,0.0201190384914743
315,4.468,0.0327233873984391
316,4.476,0.0105133048486665
317,4.483,0.02629778326096
318,4.491,0.0398169639434303
319,4.498,0.00392070760930933
320,4.506,0.0281419679512647
321,4.513,0.0297392932735759
322,4.521,0.0271763121882311
323,4.529,0.0294198282091137
324,4.536,0.0281129256726773
325,4.544,0.0338705574026445
326,4.551,0.0248674510405268
327,4.559,0.033565613477476
328,4.566,0.0294488704877012
329,4.574,0.0179916915849417
330,4.581,0.0311623649243623
331,4.589,0.0297247721342822
332,4.596,0.0372394617187917
333,4.604,0.0260364027536727
334,4.611,0.0133812298591798
335,4.619,0.0362157213985832
336,4.627,0.0213823776100296
337,4.634,0.0157336544247654
338,4.642,0.0327088662591454
339,4.649,0.0198721791234808
340,4.657,0.0342916704421629
341,4.664,0.0203368555808804
342,4.672,0.020525630391699
343,4.679,0.0238437107203182
344,4.687,0.0298772440968665
345,4.694,0.0377331804547788
346,4.702,0.0267769808576533
347,4.709,0.0200464327950057
348,4.717,0.0239308375560806
349,4.724,0.0293907859305262
350,4.732,0.0121324118799183
351,4.740,0.0388077447625155
352,4.747,0.0278588057350368
353,4.755,0.0277644183296275
354,4.762,0.0258766702214416
355,4.770,0.0454221237108133
356,4.777,0.0196253197554872
357,4.785,0.0198939608324214
358,4.792,0.042939008891584
359,4.800,0.0447614118729482
360,4.807,0.0177738744955356
361,4.815,0.0209757857098049
362,4.822,0.0177738744955356
363,4.830,0.00872720471553669
364,4.838,0.0263413466788412
365,4.845,0.0401582107168331
366,4.853,0.0299280680843945
367,4.860,0.0363173693736394
368,4.868,0.0236839781880871
369,4.875,0.0296303847288729
370,4.883,0.016198330882165
371,4.890,0.0286139049783112
372,4.898,0.0265446426289535
373,4.905,0.0300297160594507
374,4.913,0.0350395091157904
375,4.920,0.0333477963880699
376,4.928,0.0324692674607987
377,4.935,0.0254119937640419
378,4.943,0.0214985467243795
379,4.951,0.0156828304372373
380,4.958,0.0268931499720032
381,4.966,0.0210846942545079
382,4.973,0.019196946146322
383,4.981,0.0212807296349734
384,4.988,0.0155448796139468
385,4.996,0.0424452901555969
386,5.003,0.0249327961673486
387,5.011,0.0206563206453427
388,5.018,0.028127446811971
389,5.026,0.0195381929197248
390,5.033,0.0255789868659199
391,5.041,0.0159296898052309
392,5.048,0.0225077659052943
393,5.056,0.0264502552235442
394,5.064,0.0386625333695781
395,5.071,0.0248384087619393
396,5.079,0.00771072496497501
397,5.086,0.0309445478349562
398,5.094,0.021193602799211
399,5.101,0.0186015794352787
400,5.109,0.0404486335027079
401,5.116,0.0210193491276861
402,5.124,0.0175415362668358
403,5.131,0.0474115197940554
404,5.139,0.0249473173066423
405,5.146,0.0307194701759033
406,5.154,0.0379509975441849
407,5.162,0.0448848415569449
408,5.169,0.0392070760930933
409,5.177,0.0198503974145402
410,5.184,0.0178682619009449
411,5.192,0.026406691805663
412,5.199,0.0116023902956969
413,5.207,0.0251941766746359
414,5.214,0.0204820669738178
415,5.222,0.0318884218890492
416,5.229,0.0261816141466101
417,5.237,0.0327451691073798
418,5.244,0.0638639706138608
419,5.252,0.0488563731537823
420,5.259,0.033122718729017
421,5.267,0.0498365500561097
422,5.275,0.023800147302437
423,5.282,0.0272126150364655
424,5.290,0.0181151212689385
425,5.297,0.0186233611442193
426,5.305,0.0392288578020339
427,5.312,0.0333840992363042
428,5.320,0.0146590901170288
429,5.327,0.037500842226079
430,5.335,0.0173672825953109
431,5.342,0.0205764543792271
432,5.350,0.0342698887332223
433,5.357,0.0268278048451814
434,5.365,0.0230740903377501
435,5.373,0.0279749748493867
436,5.380,0.0123429683996775
437,5.388,0.0379873003924193
438,5.395,0.0264792975021317
439,5.403,0.0253466486372201
440,5.410,0.0175270151275421
441,5.418,0.0192477701338501
442,5.425,0
443,5.433,0.010484262570079
444,5.440,0.0448630598480043
445,5.448,0.0186015794352787
446,5.455,0.0381833357728847
447,5.463,0.0486748589126106
448,5.470,0.0471283575778275
449,5.478,0.0107746853559538
450,5.486,0.0181659452564666
451,5.493,0.0212516873563859
452,5.501,0.0281637496602053
453,5.508,0.0136789132147014
454,5.516,0.0157046121461779
455,5.523,0.0270238402256469
456,5.531,0.0385100614069938
457,5.538,0.0392433789413276
458,5.546,0.056530795270523
459,5.553,0.0267551991487127
460,5.561,0.0195018900714905
461,5.568,0.0262760015520194
462,5.576,0.0582588108464779
463,5.584,0.132403748080305
464,5.591,0.172983071836657
465,5.599,0.237181028654274
466,5.606,0.197886825725418
467,5.614,0.226972667730776
468,5.621,0.726369169181728
469,5.629,0.747591814259526
470,5.636,0.424815930038313
471,5.644,0.30337564212478
472,5.651,0.231358051797485
473,5.659,0.194546963687858
474,5.666,0.140688058047383
475,5.674,0.133594481502392
476,5.681,0.0896607745691868
477,5.689,0.105401689563599
478,5.697,0.113170499085749
479,5.704,0.0908442474216265
480,5.712,0.0992302053637603
481,5.719,0.059805312181261
482,5.727,0.0644448161856104
483,5.734,0.0783633281986585
484,5.742,0.0605531508548885
485,5.749,0.0737238241943091
486,5.757,0.0613227712374566
487,5.764,0.0469541039063026
488,5.772,0.0539097296280033
489,5.779,0.047491386060171
490,5.787,0.0445218130746015
491,5.794,0.0403106826794174
492,5.802,0.0293399619429981
493,5.810,0.0583023742643591
494,5.817,0.0447977147211825
495,5.825,0.051317706264071
496,5.832,0.0307267307455501
497,5.840,0.0362084608289363
498,5.847,0.0459957087129159
499,5.855,0.00474115197940554
500,5.862,0.011261143522294
501,5.870,0.0333042329701887
502,5.877,0.0369562995025638
503,5.885,0.0406737111617608
504,5.892,0.0295432578931105
505,5.900,0.0333913598059511
506,5.908,0.0141508502417479
507,5.915,0.0217308849530793
508,5.923,0.04482675699977
509,5.930,0.0414360709746821
510,5.938,0.0275320801009277
511,5.945,0.0234443793897404
512,5.953,0.0249473173066423
513,5.960,0.0324474857518581
514,5.968,0.0228344915394034
515,5.975,0.0228925760965784
516,5.983,0.023691238757734
517,5.990,0.0435561573115679
518,5.998,0.0295868213109917
519,6.005,0.038444716280172
520,6.013,0.022689280146466
521,6.021,0.0400638233114238
522,6.028,0.0411020847709261
523,6.036,0.0366949189952766
524,6.043,0.0318739007497555
525,6.051,0.0409786550869293
526,6.058,0.0271254882007031
527,6.066,0.0251796555353421
528,6.073,0.00917736003364258
529,6.081,0.0339068602508788
530,6.088,0.0405139786295297
531,6.096,0.0414070286960946
532,6.103,0.0480940133408611
533,6.111,0.043047917436287
534,6.119,0.0367602641220984
535,6.126,0.0369708206418576
536,6.134,0.0501197122723376
537,6.141,0.0513249668337179
538,6.149,0.0433673825007493
539,6.156,0.044325777694136
540,6.164,0.011929115929806
541,6.171,0.0386334910909906
542,6.179,0.0253030852193389
543,6.186,0.0308501604295469
544,6.194,0.0388077447625155
545,6.201,0.0554271886841989
546,6.209,0.0226021533107036
547,6.216,0.0302039697309756
548,6.224,0.0435851995901554
549,6.232,0.0216001946994356
550,6.239,0.0209322222919237
551,6.247,0.0121396724495652
552,6.254,0.0240107038221962
553,6.262,0.0377404410244257
554,6.269,0.0214549833064983
555,6.277,0.0275466012402215
556,6.284,0.0256152897141543
557,6.292,0.0314890905584714
558,6.299,0.0391998155234464
559,6.307,0.0243156477473647
560,6.314,0.0139475542916356
561,6.322,0.0255426840176856
562,6.330,0.0180570367117635
563,6.337,0.0195962774768998
564,6.345,0.0222246036890664
565,6.352,0.0159514715141715
566,6.360,0.0349959456979092
567,6.367,0.0454076025715195
568,6.375,0.0304653502382629
569,6.382,0.0399766964756614
570,6.390,0.037558926783254
571,6.397,0.0241123517972524
572,6.405,0.0309155055563687
573,6.412,0.0326144788537361
574,6.420,0.0390255618519216
575,6.427,0.0490306268253072
576,6.435,0.0200101299467713
577,6.443,0.0371087714651481
578,6.450,0.0394248931824994
579,6.458,0.0270020585167063
580,6.465,0.0193639392482
581,6.473,0.0341537196188724
582,6.480,0.0432076499685182
583,6.488,0.00357220026625961
584,6.495,0.02629778326096
585,6.503,0.0486095137857888
586,6.510,0.0208233137472207
587,6.518,0.0283017004834959
588,6.525,0.0395991468540242
589,6.533,0.0284396513067864
590,6.541,0.0235823302130309
591,6.548,0.0196761437430153
592,6.556,0.0301531457434475
593,6.563,0.0445000313656609
594,6.571,0.0368764332364483
595,6.578,0.0329121622092577
596,6.586,0.0553328012787896
597,6.593,0.0308356392902532
598,6.601,0.0590429523683397
599,6.608,0.0692658344311315
600,6.616,0.0667246350547273
601,6.623,0.0628765331418866
602,6.631,0.0510200229085493
603,6.638,0.0431858682595776
604,6.646,0.0629200965597679
605,6.654,0.0249618384459361
606,6.661,0.0480359287836861
607,6.669,0.0409931762262231
608,6.676,0.0481593584676829
609,6.684,0.0392288578020339
610,6.691,0.0266971145915378
611,6.699,0.0251796555353421
612,6.706,0.028294439913849
613,6.714,0.0324692674607987
614,6.721,0.0306033010615534
615,6.729,0.0297755961218103
616,6.736,0.0238074078720839
617,6.744,0.0312204494815372
618,6.751,0.0433528613614556
619,6.759,0.0274957772526934
620,6.767,0.052980376713204
621,6.774,0.0341028956313443
622,6.782,0.0248892327494674
623,6.789,0.0180642972814104
624,6.797,0.0156029641711218
625,6.804,0.0344804452529815
626,6.812,0.0332098455647794
627,6.819,0.0301168428952131
628,6.827,0.0437594532616802
629,6.834,0.0260146210447321
630,6.842,0.0297102509949885
631,6.849,0.0117112988403999
632,6.857,0.0317722527746993
633,6.865,0.0472372661225305
634,6.872,0.0364407990576361
635,6.880,0.029514215614523
636,6.887,0.0265301214896598
637,6.895,0.05642188672582
638,6.902,0.046046532700444
639,6.910,0.0799243506727353
640,6.917,0.0766498337619974
641,6.925,0.0595947556615018
642,6.932,0.0520147209501704
643,6.940,0.0382051174818253
644,6.947,0.0534523137402505
645,6.955,0.0352355444962559
646,6.962,0.0241268729365461
647,6.970,0.0382196386211191
648,6.978,0.050264923665275
649,6.985,0.0747185222359302
650,6.993,0.100747664419956
651,7.000,0.0653814296700565
652,7.008,0.0651055280234755
653,7.015,0.0587089661645838
654,7.023,0.0525520031040387
655,7.030,0.058418543378709
656,7.038,0.0737673876121903
657,7.045,0.0504173956278592
658,7.053,0.0646989361232508
659,7.060,0.0335438317685354
660,7.068,0.0541638495656437
661,7.076,0.0537935605136534
662,7.083,0.0383575894444096
663,7.091,0.0372467222884386
664,7.098,0.0341246773402849
665,7.106,0.044216869149433
666,7.113,0.0477818088460457
667,7.121,0.0673635651836517
668,7.128,0.0510853680353712
669,7.136,0.0464023006131406
670,7.143,0.0526536510790949
671,7.151,0.0448557992783575
672,7.158,0.0478544145425144
673,7.166,0.050373832209978
674,7.173,0.0374354970992572
675,7.181,0.0858199332259931
676,7.189,0.104000399621753
677,7.196,0.116060205805203
678,7.204,0.0825308951759613
679,7.211,0.0665503813832024
680,7.219,0.0513249668337179
681,7.226,0.0496768175238786
682,7.234,0.0676104245516453
683,7.241,0.0931821508479184
684,7.249,0.0873301317125419
685,7.256,0.0750670295789799
686,7.264,0.0614026375035722
687,7.271,0.0642052173872637
688,7.279,0.0430987414238151
689,7.287,0.0571552042601538
690,7.294,0.0374282365296103
691,7.302,0.0469758856152432
692,7.309,0.0666665504975523
693,7.317,0.0582588108464779
694,7.324,0.0426340649664155
695,7.332,0.0572060282476818
