#"+EI TIC Scan ACN-Blank2.d "
#Point,X(Minutes),Y(Counts)
0,2.095,0.411352402238831
1,2.102,0.384352437613116
2,2.110,0.352379217471079
3,2.117,0.355074401105731
4,2.125,0.312360553324409
5,2.132,0.30838194891135
6,2.140,0.285737593552351
7,2.147,0.241684175333567
8,2.155,0.251398066350127
9,2.163,0.238299153030521
10,2.170,0.233125363017573
11,2.178,0.204160160324924
12,2.185,0.198264446124121
13,2.193,0.195673540427714
14,2.200,0.168585340623484
15,2.208,0.180256448327113
16,2.215,0.160275191083306
17,2.223,0.159320646879366
18,2.230,0.136580034961986
19,2.238,0.14384740511971
20,2.245,0.141104093205867
21,2.253,0.140197677281118
22,2.260,0.12333673680481
23,2.268,0.12647309633204
24,2.276,0.107558682610282
25,2.283,0.0884597771516289
26,2.291,0.11898914891796
27,2.298,0.118467759226733
28,2.306,0.102649598132879
29,2.313,0.0870560356752474
30,2.321,0.0921095049902207
31,2.328,0.0804624614261869
32,2.336,0.0904169938386979
33,2.343,0.0902084379622069
34,2.351,0.0596710448160108
35,2.358,0.10387686925223
36,2.366,0.0728662146939968
37,2.373,0.136307308046575
38,2.381,0.333994214820414
39,2.389,0.304467515537212
40,2.396,0.136892868776723
41,2.404,0.0495159779068739
42,2.411,0.0419437953142789
43,2.419,0.0491389730532171
44,2.426,0.0774143370774728
45,2.434,0.05516302933186
46,2.441,0.0452486038186741
47,2.449,0.0484892412841491
48,2.456,0.0596148951569555
49,2.464,0.0444865727314956
50,2.471,0.0551469865721299
51,2.479,0.043050745735654
52,2.487,0.0427619760605126
53,2.494,0.0284197488618264
54,2.502,0.0360240169738815
55,2.509,0.0689517813198587
56,2.517,0.0376282929468889
57,2.524,0.0448715989650174
58,2.532,0.0661041914677705
59,2.539,0.0561576804351246
60,2.547,0.0304170724482206
61,2.554,0.044791385166367
62,2.562,0.0304812434871409
63,2.569,0.0283234923034459
64,2.577,0.0280427440081696
65,2.584,0.0256363300486585
66,2.592,0.032237925677584
67,2.600,0.0246817858447191
68,2.607,0.0466764094346507
69,2.615,0.0412138497465605
70,2.622,0.0418716028954935
71,2.630,0.0211764428436979
72,2.637,0.0272807129209911
73,2.645,0.0244170803091729
74,2.652,0.0146630823932878
75,2.660,0.0287967537154831
76,2.667,0.0265587887331378
77,2.675,0.0437967340631024
78,2.682,0.0403154552016763
79,2.690,0.0321336477393385
80,2.698,0.0421042229115796
81,2.705,0.0244331230689029
82,2.713,0.0170534535930688
83,2.720,0.0328074436480016
84,2.728,0.0235026430045586
85,2.735,0.0294063785852259
86,2.743,0.0472138418856082
87,2.750,0.0244251016890379
88,2.758,0.0513207883765072
89,2.765,0.0360801666329368
90,2.773,0.0195320599713653
91,2.780,0.00303208158898401
92,2.788,0.0158422252334482
93,2.795,0.0444705299717655
94,2.803,0.0103315372661678
95,2.811,0
96,2.818,0.0314518304508104
97,2.826,0.0327192084694862
98,2.833,0.0522993967200417
99,2.841,0.0254919452110878
100,2.848,0.00268716225478742
101,2.856,0.0238315195790251
102,2.863,0.0185694943875608
103,2.871,0.0366657273630845
104,2.878,0.0345962113579049
105,2.886,0.0503502014128377
106,2.893,0.0351176010491323
107,2.901,0.0319170704829825
108,2.909,0.027473226037752
109,2.916,0.0278181453719486
110,2.924,0.0379892550408156
111,2.931,0.467365697836385
112,2.939,5.33967214855788
113,2.946,25.8153993327656
114,2.954,62.7745327285534
115,2.961,100
116,2.969,84.4338385759869
117,2.976,6.31580990709397
118,2.984,0.19372434512051
119,2.991,0.102408956736928
120,2.999,0.0809437442180891
121,3.006,0.0704277152150255
122,3.014,0.0477994026157559
123,3.022,0.0497004696437697
124,3.029,0.0567993908243275
125,3.037,0.0515052801134031
126,3.044,0.0597753227542563
127,3.052,0.0535587533588525
128,3.059,0.0377806991643246
129,3.067,0.0310427400776935
130,3.074,0.0347566389552056
131,3.082,0.0466683880547857
132,3.089,0.0462512763018038
133,3.097,0.0330400636640877
134,3.104,0.0672352060287408
135,3.112,0.0767244984090796
136,3.120,0.0742859989301083
137,3.127,0.0598154296535815
138,3.135,0.0355667983215744
139,3.142,0.0653983100396473
140,3.150,0.0430427243557889
141,3.157,0.0534785395602022
142,3.165,0.0272887343008561
143,3.172,0.0335534319754501
144,3.180,0.0387833716474543
145,3.187,0.0289250957933237
146,3.195,0.0410454007693947
147,3.202,0.0392486116796264
148,3.210,0.0227566546771102
149,3.217,0.0063609542329744
150,3.225,0.0689999095990489
151,3.233,0.0546817465399577
152,3.240,0.0448314920656922
153,3.248,0.0372432667133671
154,3.255,0.0492432509914626
155,3.263,0.0399865786272098
156,3.270,0.0389758847642151
157,3.278,0.0152326003637054
158,3.285,0.0492512723713276
159,3.293,0.0499651751793159
160,3.300,0.0317486215058167
161,3.308,0.0513207883765072
162,3.315,0.0363368507886179
163,3.323,0.0460587631850429
164,3.330,0.0297272337798274
165,3.338,0.0270561142847701
166,3.346,0.0236791133615894
167,3.353,0.03353738921572
168,3.361,0.0241283106340315
169,3.368,0.0394651889359824
170,3.376,0.0468047515124913
171,3.383,0.0450881762213734
172,3.391,0.0192673544358191
173,3.398,0.0403074338218113
174,3.406,0.0488261392384807
175,3.413,0.0525961877750481
176,3.421,0.0374839081093183
177,3.428,0.0376042288072938
178,3.436,0.0570159680806835
179,3.444,0.0326229519111058
180,3.451,0.0344758906599293
181,3.459,0.0169331328950933
182,3.466,0.0425694629437518
183,3.474,0.0751041796763421
184,3.481,0.0960239383643588
185,3.489,0.0781683467847863
186,3.496,0.0484010061056337
187,3.504,0.0398341724097741
188,3.511,0.0369464756583608
189,3.519,0.0630159602197313
190,3.526,0.0465641101165402
191,3.534,0.0357913969577954
192,3.541,0.059711151715336
193,3.549,0.0490106309753765
194,3.557,0.0463555542400493
195,3.564,0.0278502308914087
196,3.572,0.0316684077071664
197,3.579,0.0481764074694127
198,3.587,0.0557405686821426
199,3.594,0.0493074220303829
200,3.602,0.0577940419275921
201,3.609,0.0569277329021681
202,3.617,0.0698341331050128
203,3.624,0.048890310277401
204,3.632,0.0701389455398842
205,3.639,0.0525239953562628
206,3.647,0.0550988582929397
207,3.655,0.0764277073540733
208,3.662,0.0552993927895656
209,3.670,0.0579624909047579
210,3.677,0.0667940301361637
211,3.685,0.0807672738610583
212,3.692,0.0609384228346867
213,3.700,0.0641389534008364
214,3.707,0.0811202145751199
215,3.715,0.0793394682450817
216,3.722,0.0602245200266984
217,3.730,0.0651015189846409
218,3.737,0.0810801076757948
219,3.745,0.0830533671225939
220,3.752,0.0959998742247637
221,3.760,0.0666015170194028
222,3.768,0.104229809966292
223,3.775,0.0775908074345036
224,3.783,0.0884597771516289
225,3.790,0.109884882771143
226,3.798,0.088483841291224
227,3.805,0.0737245023395558
228,3.813,0.0940426575376947
229,3.820,0.0981094971292685
230,3.828,0.0735961602617152
231,3.835,0.0989597633949624
232,3.843,0.0952298217577202
233,3.850,0.0926148519217181
234,3.858,0.0972752736233046
235,3.866,0.095622869371107
236,3.873,0.0741496354724027
237,3.881,0.085018605189528
238,3.888,0.103114838165052
239,3.896,0.09519773623826
240,3.903,0.123015881610209
241,3.911,0.0984544164634651
242,3.918,0.10486349897563
243,3.926,0.106523924607692
244,3.933,0.130989133196055
245,3.941,0.0882913281744631
246,3.948,0.109572048956406
247,3.956,0.145620130069883
248,3.963,0.144521201028373
249,3.971,0.157604071588248
250,3.979,0.133828701668279
251,3.986,0.120312676595691
252,3.994,0.128293949561403
253,4.001,0.111176324929414
254,4.009,0.119446367570267
255,4.016,0.143807298220385
256,4.024,0.15792492678285
257,4.031,0.143382165087538
258,4.039,0.135809982494943
259,4.046,0.125895556981757
260,4.054,0.163186951974314
261,4.061,0.152213704318944
262,4.069,0.159906207609514
263,4.076,0.141625482897095
264,4.084,0.146414246676522
265,4.092,0.183120080938931
266,4.099,0.148451677162241
267,4.107,0.167269834325618
268,4.114,0.149975739336598
269,4.122,0.175700304563772
270,4.129,0.142339385705083
271,4.137,0.169291222051607
272,4.144,0.149767183460107
273,4.152,0.158654872350568
274,4.159,0.14494633416122
275,4.167,0.149165579970229
276,4.174,0.158205675078126
277,4.182,0.137927626779313
278,4.190,0.171801913949364
279,4.197,0.163002460237418
280,4.205,0.150817984222427
281,4.212,0.168793896499975
282,4.220,0.161791231877798
283,4.227,0.155518512823339
284,4.235,0.18061741042104
285,4.242,0.175539876966471
286,4.250,0.189545206210826
287,4.257,0.188935581341083
288,4.265,0.168986409616736
289,4.272,0.211860684995359
290,4.280,0.182550562968514
291,4.287,0.197277816400722
292,4.295,0.195015787278781
293,4.303,0.208916838584891
294,4.310,0.219858000720801
295,4.318,0.195384770752573
296,4.325,0.194839316921751
297,4.333,0.199780486918613
298,4.340,0.221061207700557
299,4.348,0.207087963975662
300,4.355,0.222063880183686
301,4.363,0.225825907340389
302,4.370,0.221245699437453
303,4.378,0.212510416764427
304,4.385,0.206799194300521
305,4.393,0.225593287324303
306,4.401,0.236566534979673
307,4.408,0.28981245452379
308,4.416,0.382026237452256
309,4.423,0.276015681155926
310,4.431,0.245951549421767
311,4.438,0.252761700927183
312,4.446,0.245975613561362
313,4.453,0.267641360576827
314,4.461,0.241700218093297
315,4.468,0.237256373648067
316,4.476,0.245734972165411
317,4.483,0.250122666951586
318,4.491,0.252761700927183
319,4.498,0.251927477421219
320,4.506,0.244972941078232
321,4.514,0.25522426454575
322,4.521,0.281742946379562
323,4.529,0.280603910438727
324,4.536,0.287887323356181
325,4.544,0.280900701493733
326,4.551,0.278710864790578
327,4.559,0.302101208477026
328,4.566,0.300224205588608
329,4.574,0.32986320418992
330,4.581,0.304531686576133
331,4.589,0.311061089786273
332,4.596,0.318304395804401
333,4.604,0.309344514495155
334,4.612,0.274371298283593
335,4.619,0.314061085855797
336,4.627,0.307098528132944
337,4.634,0.32876427514841
338,4.642,0.303520992713138
339,4.649,0.28345952167068
340,4.657,0.320373911809581
341,4.664,0.31597819564354
342,4.672,0.316459478435443
343,4.679,0.332967478197689
344,4.687,0.340242869735278
345,4.694,0.334860523845838
346,4.702,0.3104354221568
347,4.709,0.348031629584229
348,4.717,0.312897985775366
349,4.725,0.360111827660974
350,4.732,0.342111851243831
351,4.740,0.369954060755375
352,4.747,0.344758906599293
353,4.755,0.378095761318388
354,4.762,0.35255568782811
355,4.770,0.355587769417094
356,4.777,0.399585037976822
357,4.785,0.378552979970695
358,4.792,0.372986142344359
359,4.800,0.394587718320904
360,4.807,0.387657246117512
361,4.815,0.380253512502083
362,4.823,0.389678633843501
363,4.830,0.403884497584482
364,4.838,0.384480779690957
365,4.845,0.410052938700695
366,4.853,0.407887166137135
367,4.860,0.412475395419936
368,4.868,0.417224052300038
369,4.875,0.407133156429822
370,4.883,0.398446002035987
371,4.890,0.427146499193089
372,4.898,0.417520843355045
373,4.905,0.412531545078992
374,4.913,0.394988787314156
375,4.920,0.404085032081108
376,4.928,0.443662520335201
377,4.936,0.459689237305545
378,4.943,0.41864383653615
379,4.951,0.408649197224314
380,4.958,0.440325626311345
381,4.966,0.412379138861556
382,4.973,0.456103680505873
383,4.981,0.438264131686031
384,4.988,0.450071602847365
385,4.996,0.459360360731078
386,5.003,0.445467330804834
387,5.011,0.474440554877348
388,5.018,0.462456613358982
389,5.026,0.447256098514737
390,5.033,0.482461934742385
391,5.041,0.494125021066149
392,5.049,0.482365678184004
393,5.056,0.470879062217271
394,5.064,0.491309516733521
395,5.071,0.502900410638499
396,5.079,0.460443247012858
397,5.086,0.51380948725495
398,5.094,0.480608995993561
399,5.101,0.54624794742916
400,5.109,0.485694550827995
401,5.116,0.475467291500073
402,5.124,0.534392347988635
403,5.131,0.497983304781232
404,5.139,0.537488600616539
405,5.147,0.50959024144594
406,5.154,0.500526082198448
407,5.162,0.512133018863157
408,5.169,0.537913733749386
409,5.177,0.527493961304703
410,5.184,0.528729253803919
411,5.192,0.529948503543404
412,5.199,0.550130295283838
413,5.207,0.542718540288543
414,5.214,0.58419709557065
415,5.222,0.55607413776383
416,5.229,0.527165084730237
417,5.237,0.516111623276216
418,5.244,0.541330841571892
419,5.252,0.575221171501674
420,5.260,0.603416321727279
421,5.267,0.567063428178931
422,5.275,0.609729147681063
423,5.282,0.595210450125346
424,5.290,0.604900277002311
425,5.297,0.600552689115461
426,5.305,0.600047342183963
427,5.312,0.619715765613034
428,5.320,0.605894928105575
429,5.327,0.614445719041705
430,5.335,0.624616828710572
431,5.342,0.608678346918743
432,5.350,0.633576710019818
433,5.358,0.615985823975792
434,5.365,0.648263856552701
435,5.373,0.643811990727606
436,5.380,0.655138179097038
437,5.388,0.631940348527351
438,5.395,0.665413566704151
439,5.403,0.663841376250603
440,5.410,0.656878818527751
441,5.418,0.656108766060708
442,5.425,0.678031197231854
443,5.433,0.74861934004418
444,5.440,0.734991015653482
445,5.448,0.697194273729427
446,5.455,0.647020542673621
447,5.463,0.668028536540153
448,5.471,0.670306608421823
449,5.478,0.651263852622225
450,5.486,0.689950967711299
451,5.493,0.688266477939641
452,5.501,0.687095356479346
453,5.508,0.679154190412959
454,5.516,0.727988351031305
455,5.523,0.712057890619341
456,5.531,0.726127390902616
457,5.538,0.736162137113778
458,5.546,0.733731659014671
459,5.553,0.775218235676643
460,5.561,0.780215555332561
461,5.569,0.745154103942484
462,5.576,0.779638015982278
463,5.584,0.792825164480399
464,5.591,0.772434816863475
465,5.599,0.793747623164879
466,5.606,0.83625291506971
467,5.614,0.842950767257016
468,5.621,0.836678048202557
469,5.629,0.860292990525226
470,5.636,0.86859511868554
471,5.644,0.856386578530953
472,5.651,0.897768877254679
473,5.659,0.881854459602446
474,5.666,0.897464064819808
475,5.674,0.937659199323509
476,5.682,0.959886442929527
477,5.689,1.00979546844979
478,5.697,1.03575265369305
479,5.704,0.961891787895786
480,5.712,0.927616431732482
481,5.719,0.931891827200547
482,5.727,0.975544176426079
483,5.734,0.995477305390696
484,5.742,1.01157621477983
485,5.749,0.962469327246068
486,5.757,0.9801965767478
487,5.764,0.963094994875541
488,5.772,0.990223301579097
489,5.779,0.97357091697928
490,5.787,0.972760757612911
491,5.795,0.976161822675687
492,5.802,1.01430348393394
493,5.810,1.02343983560022
494,5.817,1.04761627451344
495,5.825,1.08532478125898
496,5.832,1.08298253833839
497,5.840,1.07745580761137
498,5.847,1.1139049577181
499,5.855,1.10297181696206
500,5.862,1.11688088964803
501,5.870,1.11869372149753
502,5.877,1.1578861835181
503,5.885,1.0863755820213
504,5.893,1.15604126614914
505,5.900,1.17392894324818
506,5.908,1.22840213391164
507,5.915,1.26461064262242
508,5.923,1.26135396239721
509,5.930,1.25989407126178
510,5.938,1.331677399674
511,5.945,1.28117479204372
512,5.953,1.33338595358525
513,5.960,1.29264536525072
514,5.968,1.32931109261381
515,5.975,1.34086187961946
516,5.983,1.3734768101507
517,5.990,1.38289391011226
518,5.998,1.36527093854877
519,6.006,1.36437254400389
520,6.013,1.400917950669
521,6.021,1.43002753819921
522,6.028,1.41408905640739
523,6.036,1.44754623182446
524,6.043,1.45804621806779
525,6.051,1.53589370965797
526,6.058,1.39988319266641
527,6.066,1.49432691919735
528,6.073,1.47801143255187
529,6.081,1.39886447742355
530,6.088,1.4775221283801
531,6.096,1.44412912400195
532,6.104,1.41058371340636
533,6.111,1.3776078207812
534,6.119,1.38764256699236
535,6.126,1.35436988331218
536,6.134,1.29146622241056
537,6.141,1.33483782334082
538,6.149,1.26660796620881
539,6.156,1.28047693199546
540,6.164,1.23611067996194
541,6.171,1.21479787366054
542,6.179,1.22312406596045
543,6.186,1.19495297987444
544,6.194,1.17985674296844
545,6.201,1.19813746768086
546,6.209,1.1616482106748
547,6.217,1.1639423253162
548,6.224,1.16496104055906
549,6.232,1.12821509939733
550,6.239,1.13099049683063
551,6.247,1.11254132314105
552,6.254,1.11791564765062
553,6.262,1.08140232650497
554,6.269,1.04818579248385
555,6.277,1.07607613027459
556,6.284,1.08587825646966
557,6.292,1.13422311291624
558,6.299,1.11382474391945
559,6.307,1.13488086606518
560,6.315,1.12872846770869
561,6.322,1.10703063517377
562,6.330,1.15214287553474
563,6.337,1.14225251416114
564,6.345,1.08307879489677
565,6.352,1.10753598210526
566,6.360,1.04849060491873
567,6.367,1.06181411687455
568,6.375,1.05048792850512
569,6.382,1.05943176705464
570,6.390,1.08619911166427
571,6.397,1.05791572626014
572,6.405,1.04736761173762
573,6.412,1.01917246151202
574,6.420,1.01035696504034
575,6.428,1.03518313572263
576,6.435,1.02765106002936
577,6.443,0.986236675786173
578,6.450,0.959413181517489
579,6.458,0.916402542681161
580,6.465,0.895851767466936
581,6.473,0.832194096858001
582,6.480,0.906905228920957
583,6.488,0.90874212491005
584,6.495,0.913530888689477
585,6.503,0.88047478226566
586,6.510,1.04797723660736
587,6.518,1.74846829746132
588,6.526,3.08624996721261
589,6.533,4.34913601316405
590,6.541,5.41334852261825
591,6.548,6.03155626881665
592,6.556,6.04782362718295
593,6.563,5.70407541444665
594,6.571,6.10246526682358
595,6.578,5.85655382430114
596,6.586,6.12887164933928
597,6.593,6.12526202840002
598,6.601,6.1153074959875
599,6.608,6.00300817787699
600,6.616,6.1136791558749
601,6.623,6.03113915706367
602,6.631,5.96722480229906
603,6.639,6.13507217597496
604,6.646,6.19907476591809
605,6.654,6.01090121566418
606,6.661,5.98889857069439
607,6.669,6.23533140290805
608,6.676,6.34853713694332
609,6.684,6.59505820433551
610,6.691,6.07801610099495
611,6.699,6.26603724503142
612,6.706,6.45421079528532
613,6.714,6.25880196039315
614,6.721,6.16471117457627
615,6.729,6.23569236500198
616,6.736,6.3818098206235
617,6.744,6.63228542828914
618,6.752,6.18577531810186
619,6.759,6.04974073697069
620,6.767,6.2723500709852
621,6.774,6.49214390066708
622,6.782,5.9973370623124
623,6.789,5.94872750033028
624,6.797,6.66583886026459
625,6.804,7.51360245544063
626,6.812,9.13473134754449
627,6.819,10.2440400545999
628,6.827,10.7725366883878
629,6.834,11.1472073205038
630,6.842,11.7191798331601
631,6.850,13.3529504199313
632,6.857,17.1806165280693
633,6.865,21.154031108355
634,6.872,22.7118552705639
635,6.880,22.6739061224225
636,6.887,22.3656444942091
637,6.895,22.6547831528242
638,6.902,21.6452764540496
639,6.910,22.4137647520194
640,6.917,21.7240303615645
641,6.925,21.0795285321685
642,6.932,21.7078833238962
643,6.940,21.2518438144292
644,6.947,20.4919063073955
645,6.955,21.0568761554296
646,6.963,20.2071473221867
647,6.970,19.8826664638862
648,6.978,20.7981866547822
649,6.985,20.5962805021993
650,6.993,21.8880836225642
651,7.000,21.3666056961583
652,7.008,20.1235244370936
653,7.015,18.1206901627321
654,7.023,16.7057989683383
655,7.030,16.3042567136744
656,7.038,16.4334249936411
657,7.045,15.5829020437914
658,7.053,14.9602504531478
659,7.061,14.8362078349149
660,7.068,15.5713271926462
661,7.076,14.3098769736906
662,7.083,13.8293722556353
663,7.091,14.1811979978957
664,7.098,14.4354195899583
665,7.106,14.2709010889264
666,7.113,13.6511211522744
667,7.121,13.9874576100154
668,7.128,14.3139598560419
669,7.136,14.2923582800654
670,7.143,12.9902476865739
671,7.151,12.0806312312585
672,7.158,11.2492954220461
673,7.166,10.7931516346409
674,7.174,10.2508582274852
675,7.181,10.4481280225061
676,7.189,12.658066303603
677,7.196,12.8984269512588
678,7.204,11.3958299894206
679,7.211,8.71621585308618
680,7.219,6.79868093220947
681,7.226,5.13043445477839
682,7.234,4.40216535545181
683,7.241,3.78333194162393
684,7.249,3.2356321244392
685,7.256,3.02889710117759
686,7.264,2.75153382820434
687,7.272,2.55152072126964
688,7.279,2.50884698038765
689,7.287,2.42314655790959
690,7.294,2.35830172308063
691,7.302,2.18225649918266
692,7.309,2.07149728600623
693,7.317,1.90833439817151
694,7.324,1.84737993257709
695,7.332,1.84097085006493
696,7.339,1.76754313878038
697,7.347,1.87048952796827
698,7.354,1.84779704433008
699,7.362,1.75634529248879
700,7.369,1.77315008330604
701,7.377,1.68280528188613
702,7.385,1.65807536776222
703,7.392,1.66112349211093
704,7.400,1.6837518047102
705,7.407,1.67549780482908
706,7.415,1.72693891390356
707,7.422,1.76763939533876
708,7.430,1.77675168286544
709,7.437,1.83176230597987
710,7.445,1.80802704295922
711,7.452,1.77365543023754
712,7.460,1.74885332369484
713,7.467,1.75624101455054
714,7.475,1.82163932459019
715,7.482,1.95544396211887
716,7.490,2.03491979382166
717,7.498,1.85310719780073
718,7.505,1.62637487453559
719,7.513,1.51124400933271
