#"+EI TIC Scan ACN-ASA.d "
#Point,X(Minutes),Y(Counts)
0,2.095,0.13457718385238
1,2.102,0.117873032029288
2,2.110,0.111183162871637
3,2.117,0.11859810987255
4,2.125,0.379728738802336
5,2.132,0.349726932948084
6,2.140,0.110642774667695
7,2.148,0.116723852051286
8,2.155,0.0882953283097751
9,2.163,0.182377598651629
10,2.170,0.635092946771078
11,2.178,0.383087354095185
12,2.185,0.190394497069591
13,2.193,0.128591871466956
14,2.200,0.109240501480253
15,2.208,0.113584128182818
16,2.215,0.109637242186944
17,2.223,0.114418651738272
18,2.230,0.099650320949551
19,2.238,0.0951220046076645
20,2.246,0.0654827376750447
21,2.253,0.0751550024898899
22,2.261,0.093110939646162
23,2.268,0.0752507674880567
24,2.276,0.0589433563716558
25,2.283,0.0756680292657834
26,2.291,0.0882542861677037
27,2.298,0.131273291415626
28,2.306,0.0948073481851165
29,2.313,0.0714064868473615
30,2.321,0.0712970411351709
31,2.328,0.0731370971713756
32,2.336,0.0641967505568051
33,2.343,0.055536858579723
34,2.351,0.1105880518116
35,2.359,0.192343998817986
36,2.366,0.179367841566387
37,2.374,0.0874129222552383
38,2.381,0.0784110124275606
39,2.389,0.276904492199257
40,2.396,0.414470912065843
41,2.404,0.190079840647043
42,2.411,0.0495173444092394
43,2.419,0.0593537777923705
44,2.426,0.0568160053409508
45,2.434,0.0607150088377413
46,2.441,0.0899506947066581
47,2.449,0.0863047844193084
48,2.457,0.172623249552641
49,2.464,0.154338975259797
50,2.472,0.168443791418362
51,2.479,0.0945200531906161
52,2.487,0.0431216106031006
53,2.494,0.0397424742392155
54,2.502,0.031670852965158
55,2.509,0.0394825406727628
56,2.517,0.0287294994500353
57,2.524,0.0508785754546101
58,2.532,0.0472326651672604
59,2.539,0.0429232402497551
60,2.547,0.13658140845687
61,2.554,0.696320982384713
62,2.562,0.754313529131712
63,2.570,0.977534899501475
64,2.577,1.04508342499412
65,2.585,0.262402935334001
66,2.592,0.137395410941288
67,2.600,0.102140210901887
68,2.607,0.0693064972447042
69,2.615,0.0690944461773349
70,2.622,0.0755107010545094
71,2.630,0.064203590913817
72,2.637,0.0606329245535983
73,2.645,0.0532658600517678
74,2.652,0.0616110956063019
75,2.660,0.0475336408757846
76,2.667,0.0781579192181198
77,2.675,0.0434978302387558
78,2.683,0.0418493041988847
79,2.690,0.0438672095173991
80,2.698,0.0532316582667083
81,2.705,0.0683420069060244
82,2.713,0.0678973837002501
83,2.720,0.0470479755279388
84,2.728,0.0521782432868736
85,2.735,0.0450505912804601
86,2.743,0.0521850836438855
87,2.750,0.0630817723638632
88,2.758,0.0788624759903469
89,2.765,0.192528688457308
90,2.773,0.52036647896727
91,2.781,0.326401315537461
92,2.788,0.515031000497978
93,2.796,0.988835169285155
94,2.803,0.484769261077274
95,2.811,0.251198430548487
96,2.818,0.183006911496725
97,2.826,0.169305676401863
98,2.833,0.153812267769879
99,2.841,0.129570042519659
100,2.848,0.114870115301058
101,2.856,0.106059735469714
102,2.863,0.132696085674104
103,2.871,0.130219876435791
104,2.878,0.156774142356038
105,2.886,0.116559683483
106,2.894,0.124391892261641
107,2.901,0.236594268328053
108,2.909,0.165119377910572
109,2.916,0.0860653719238915
110,2.924,0.0954571821012482
111,2.931,0.126375595795096
112,2.939,1.92682596490076
113,2.946,16.9966318082073
114,2.954,47.2996459431211
115,2.961,74.6247448546835
116,2.969,100
117,2.976,80.3694476822134
118,2.984,6.46776960583127
119,2.992,0.264338756368372
120,2.999,0.171898171709378
121,3.007,0.13629411346237
122,3.014,0.116833297763477
123,3.022,0.108611188635157
124,3.029,0.101025232708946
125,3.037,0.0920164825242559
126,3.044,0.123016980502246
127,3.052,0.0936171260650436
128,3.059,0.0918317928849342
129,3.067,0.104862672992629
130,3.074,0.101312527703446
131,3.082,0.0762631403258199
132,3.089,0.0694433043849425
133,3.097,0.0973861627786077
134,3.105,0.0715159325595521
135,3.112,0.0712696797071233
136,3.120,0.0983574934742994
137,3.127,0.0712423182790756
138,3.135,0.0556599850059374
139,3.142,0.0591348863679893
140,3.150,0.0427795927525049
141,3.157,0.065380132319866
142,3.165,0.0634511516425065
143,3.172,0.0521098397167545
144,3.180,0.0598394431402164
145,3.187,0.0467333191053907
146,3.195,0.0477593726571777
147,3.203,0.0543945189587335
148,3.210,0.0437304023771609
149,3.218,0.0691696901044659
150,3.225,0.0432720984573627
151,3.233,0.0609270599051106
152,3.240,0.0561730117818309
153,3.248,0.0402760220861447
154,3.255,0.0320197111727655
155,3.263,0.0758937610471766
156,3.270,0.0310620611910977
157,3.278,0.0384359660499401
158,3.285,0.0371157771466408
159,3.293,0.0474105144495702
160,3.300,0.0444075977213403
161,3.308,0.0493052933418701
162,3.316,0.0551332775160201
163,3.323,0.043880890231423
164,3.331,0.0206852396040254
165,3.338,0.0350499893290431
166,3.346,0.0220738320774438
167,3.353,0.0057664209610428
168,3.361,0.0145357586503155
169,3.368,0.0324848554495756
170,3.376,0.0281070269619512
171,3.383,0.0308910522657999
172,3.391,0.0295982247905483
173,3.398,0
174,3.406,0.0319102654605749
175,3.413,0.018434762147106
176,3.421,0.0408369313611216
177,3.429,0.0370678946475574
178,3.436,0.0106572762245607
179,3.444,0.0205073903217157
180,3.451,0.00909767482584451
181,3.459,0.0101374090916553
182,3.466,0.0354604107497579
183,3.474,0.035761386458282
184,3.481,0.0502013801104307
185,3.489,0.0907988989761354
186,3.496,0.0604003524151933
187,3.504,0.0265884677053065
188,3.511,0.0164989411127346
189,3.519,0.00772276306644996
190,3.527,0.0177986089449981
191,3.534,0.0387574628295
192,3.542,0.0055612102506854
193,3.549,0.0162595286173176
194,3.557,0.0218070581539792
195,3.564,0.00887194304445138
196,3.572,0.00614948095370994
197,3.579,0.0195497403400478
198,3.587,0.0133865786723141
199,3.594,0.0179969792983435
200,3.602,0.0269236451988902
201,3.609,0.0248373363102567
202,3.617,0.0260891216434368
203,3.624,0.0328542347282189
204,3.632,0.022764708135647
205,3.640,0.0357066636021867
206,3.647,0.0289005083753331
207,3.655,0.0243243095343632
208,3.662,0.0245568816727683
209,3.670,0.0275529580439862
210,3.677,0.0192898067735951
211,3.685,0.0136875543808382
212,3.692,0.0209451731704781
213,3.700,0.0124357690476581
214,3.707,0.0250699084486618
215,3.715,0.0211367031668117
216,3.722,0.00588954738725724
217,3.730,0.026232769140687
218,3.738,0.0217181335128243
219,3.745,0.0203637428244655
220,3.753,0.0162526882603057
221,3.760,0.0331141682946716
222,3.768,0.0209383328134662
223,3.775,0.0139338072332671
224,3.783,0.0344548782690066
225,3.790,0.0224090095710275
226,3.798,0.0549007053776151
227,3.805,0.0357955882433416
228,3.813,0.0513368793744083
229,3.820,0.0535736761173039
230,3.828,0.0461108466173066
231,3.835,0.0435935952369226
232,3.843,0.0450163894954005
233,3.851,0.0410147806434313
234,3.858,0.0454610127011749
235,3.866,0.031513524753884
236,3.873,0.103084180169531
237,3.881,0.172329114201128
238,3.888,0.150980359966947
239,3.896,0.0898754507795271
240,3.903,0.0689234372520371
241,3.911,0.0675553658496544
242,3.918,0.0758253574770574
243,3.926,0.068772949397775
244,3.933,0.048600736569643
245,3.941,0.0309184136938475
246,3.949,0.055933599286414
247,3.956,0.0681709979807266
248,3.964,0.0712217972080399
249,3.971,0.100614811288231
250,3.979,0.0818106698624815
251,3.986,0.0441408237978757
252,3.994,0.0323617290233612
253,4.001,0.0313698772566338
254,4.009,0.0378818971319751
255,4.016,0.0485528540705596
256,4.024,0.0319239461745987
257,4.031,0.0286200537378447
258,4.039,0.0277513283973317
259,4.046,0.0265132237781754
260,4.054,0.0430463666759696
261,4.062,0.0125999376159441
262,4.069,0.0326627047318854
263,4.077,0.0347148118354593
264,4.084,0.0300770497813822
265,4.092,0.0248510170242805
266,4.099,0.0164442182566393
267,4.107,0.0299539233551678
268,4.114,0.0493873776260131
269,4.122,0.0691696901044659
270,4.129,0.0760237278304029
271,4.137,0.0507486086713838
272,4.144,0.0413841599220746
273,4.152,0.138722440201599
274,4.159,0.296378988612174
275,4.167,0.21917187901871
276,4.175,0.115513108860178
277,4.182,0.0659136801667953
278,4.190,0.0477456919431539
279,4.197,0.0613990445389326
280,4.205,0.0491958476296795
281,4.212,0.0426291048982428
282,4.220,0.0299128812130963
283,4.227,0.0347763750485665
284,4.235,0.0259249530751509
285,4.242,0.0301933358505847
286,4.250,0.0504476329628596
287,4.257,0.0515147286567181
288,4.265,0.0261096427144726
289,4.273,0.0342291464876135
290,4.280,0.0187425782126421
291,4.288,0.033319379005029
292,4.295,0.0285653308817494
293,4.303,0.0316982143932056
294,4.310,0.0621378030962192
295,4.318,0.0628560405824701
296,4.325,0.0566655174866887
297,4.333,0.0751139603478185
298,4.340,0.116121900634238
299,4.348,0.154544185970154
300,4.355,0.0607628913368247
301,4.363,0.0221490760045748
302,4.370,0.0352073175403171
303,4.378,0.0297076705027389
304,4.386,0.0331962525788146
305,4.393,0.0188725449958684
306,4.401,0.0519525115054805
307,4.408,0.0941780353400205
308,4.416,0.155419751667679
309,4.423,0.258134552558567
310,4.431,0.129241705383087
311,4.438,0.0384086046218924
312,4.446,0.0234692649078741
313,4.453,0.0457141059106157
314,4.461,0.0507486086713838
315,4.468,0.0853813362227001
316,4.476,0.154756237037523
317,4.484,0.240541154323926
318,4.491,0.241170467169022
319,4.499,0.212311000935761
320,4.506,0.239467218273056
321,4.514,0.0911477571837429
322,4.521,0.101989723047625
323,4.529,0.335403225365138
324,4.536,0.368852571153394
325,4.544,0.150781989613602
326,4.551,0.10919261898117
327,4.559,0.0715980168436951
328,4.566,0.0754764992694499
329,4.574,0.0605097981273839
330,4.581,0.075462818555426
331,4.589,0.125739442592988
332,4.597,0.574678913641861
333,4.604,0.632042147543765
334,4.612,0.236457461187814
335,4.619,0.156179031296001
336,4.627,0.186550216428896
337,4.634,1.87325228878346
338,4.642,3.96157224237847
339,4.649,1.10995053053809
340,4.657,0.402568690865114
341,4.664,0.277362796119055
342,4.672,0.205203870000383
343,4.679,0.166001783965109
344,4.687,0.145419149716262
345,4.695,0.183075315066844
346,4.702,0.194519232347775
347,4.710,0.154592068469238
348,4.717,0.131341694985745
349,4.725,0.244433317463705
350,4.732,0.724783707911283
351,4.740,0.676668636689486
352,4.747,0.281740624606679
353,4.755,0.143346521541652
354,4.762,0.159448721947696
355,4.770,1.20522986335703
356,4.777,2.97682076622943
357,4.785,1.04790849244004
358,4.792,0.384462265854579
359,4.800,0.301338247445811
360,4.808,0.230417425946295
361,4.815,0.174059724525142
362,4.823,0.136663492741013
363,4.830,0.161336660482984
364,4.838,0.232667903403214
365,4.845,0.38868276613093
366,4.853,0.244529082461872
367,4.860,0.305633991649292
368,4.868,0.513300390173964
369,4.875,0.284045824919694
370,4.883,0.158361105182802
371,4.890,0.16918939033266
372,4.898,0.661900305900766
373,4.906,2.16194955647125
374,4.913,1.14781874695604
375,4.921,0.29350603866717
376,4.928,0.177637231242373
377,4.936,0.135548514548071
378,4.943,0.112879571410591
379,4.951,0.116908541690608
380,4.958,0.0885826233042755
381,4.966,0.102653237677781
382,4.973,0.0909699079014332
383,4.981,0.118912766295098
384,4.988,0.0816738627222432
385,4.996,0.0726240703954821
386,5.003,0.0639915398464477
387,5.011,0.0683488472630363
388,5.019,0.0739237382277456
389,5.026,0.059394819934442
390,5.034,0.0694980272410378
391,5.041,0.0746077739289369
392,5.049,0.113426799971544
393,5.056,0.0875634101095004
394,5.064,0.075072918205747
395,5.071,0.0575752849692731
396,5.079,0.0573221917598323
397,5.086,0.0681573172667028
398,5.094,0.0569870142662486
399,5.101,0.047342110879451
400,5.109,0.0593469374353586
401,5.116,0.0588612720875128
402,5.124,0.0557283885760566
403,5.132,0.0456183409124489
404,5.139,0.0525065804234455
405,5.147,0.0330457647245525
406,5.154,0.0368626839372
407,5.162,0.0345916854092449
408,5.169,0.0302001762075966
409,5.177,0.0441818659399471
410,5.184,0.0340581375623157
411,5.192,0.0364454221594733
412,5.199,0.0411310667126339
413,5.207,0.0429711227488385
414,5.214,0.0646960966186747
415,5.222,0.0657084694564379
416,5.230,0.0687319072557035
417,5.237,0.0669739355036418
418,5.245,0.040255501015109
419,5.252,0.0429369209637789
420,5.260,0.0396740706690964
421,5.267,0.0234282227658026
422,5.275,0.0243516709624109
423,5.282,0.0362060096640564
424,5.290,0.0136738736668144
425,5.297,0.0184005603620464
426,5.305,0.0282985569582848
427,5.312,0.0242695866782679
428,5.320,0.0153702822057689
429,5.327,0.0141732197286841
430,5.335,0.020404784966537
431,5.343,0.00978855088404774
432,5.350,0.0192761260595713
433,5.358,0.0293724930091551
434,5.365,0.0186810149995349
435,5.373,0.0476020444459037
436,5.380,0.0391884053212505
437,5.388,0.0266705519894494
438,5.395,0.0324096115224446
439,5.403,0.0166562693240086
440,5.410,0.019064074992202
441,5.418,0.0215402842305146
442,5.425,0.0311851876173121
443,5.433,0.0549896300187699
444,5.441,0.0583824470966789
445,5.448,0.0619599538139095
446,5.456,0.0889725236539545
447,5.463,0.0885005390201325
448,5.471,0.134782394562737
449,5.478,0.268819190211176
450,5.486,0.239959723977914
451,5.493,0.104807950136534
452,5.501,0.0889178007978592
453,5.508,0.0646482141195913
454,5.516,0.0327995118721236
455,5.523,0.117743065246061
456,5.531,0.310442762628667
457,5.538,0.425490727212035
458,5.546,0.224151658923383
459,5.554,0.077200269236452
460,5.561,0.05624141535195
461,5.569,0.0502219011814665
462,5.576,0.0531222125545176
463,5.584,0.0806409688134443
464,5.591,0.0571238214064868
465,5.599,0.0293246105100717
466,5.606,0.071604857200707
467,5.614,0.0850324780150926
468,5.621,0.0880217140292986
469,5.629,0.1103007568171
470,5.636,0.0857233540732958
471,5.644,0.182541767219915
472,5.652,0.508484778837577
473,5.659,0.345725324096115
474,5.667,0.0919891210962083
475,5.674,0.12320851049858
476,5.682,0.129946262155314
477,5.689,0.151315537460531
478,5.697,0.123755739059533
479,5.704,0.136909745593442
480,5.712,0.570848313715189
481,5.719,0.924775225868589
482,5.727,0.418636689486098
483,5.734,0.360432091671729
484,5.742,0.200552427232282
485,5.749,0.0863253054903441
486,5.757,0.103590366588413
487,5.765,0.0512616354472773
488,5.772,0.0632869830742206
489,5.780,0.0701204997291219
490,5.787,0.0416509338455393
491,5.795,0.044188706296959
492,5.802,0.13075342428272
493,5.810,0.356430482819759
494,5.817,0.348434105472833
495,5.825,0.194847569484347
496,5.832,0.141691155144769
497,5.840,0.311195201899978
498,5.847,2.36887719643864
499,5.855,3.69836898527408
500,5.862,1.05713613404911
501,5.870,0.219253963302853
502,5.878,0.137983681644312
503,5.885,0.12524693688813
504,5.893,0.0886441865173827
505,5.900,0.103309911950925
506,5.908,0.0796012345476335
507,5.915,0.0657153098134498
508,5.923,0.10350828230427
509,5.930,0.122900694433044
510,5.938,0.0720973629055648
511,5.945,0.0734312325228878
512,5.953,0.097133069569167
513,5.960,0.101490376985756
514,5.968,0.068300964763953
515,5.976,0.0525339418514931
516,5.983,0.0347216521924712
517,5.991,0.0486554594257383
518,5.998,0.0387164206874285
519,6.006,0.0672680708551541
520,6.013,0.103952905510044
521,6.021,0.0974819277767745
522,6.028,0.135637439189226
523,6.036,0.149838020345958
524,6.043,0.0996982034486344
525,6.051,0.072001597907398
526,6.058,0.0800253366823721
527,6.066,0.0481971555059402
528,6.073,0.0499688079720257
529,6.081,0.0564192646342598
530,6.089,0.0536078779023635
531,6.096,0.0652706866076754
532,6.104,0.0582251188854049
533,6.111,0.0564124242772479
534,6.119,0.0619120713148261
535,6.126,0.0687592686837511
536,6.134,0.199389566540257
537,6.141,0.432207957797733
538,6.149,0.312727441870646
539,6.156,0.166576373954109
540,6.164,0.125055406891797
541,6.171,0.115834605639738
542,6.179,0.114398130667236
543,6.187,0.0944106074784255
544,6.194,0.0799158909701815
545,6.202,0.0957718385237962
546,6.209,0.0981386020499182
547,6.217,0.17709000268142
548,6.224,0.318596468186868
549,6.232,0.247798773113566
550,6.239,0.146417841840001
551,6.247,0.132415631036615
552,6.254,0.134180443145689
553,6.262,0.169244113188756
554,6.269,0.167253569298289
555,6.277,0.137812672719015
556,6.284,0.113187387476127
557,6.292,0.0913598082511122
558,6.300,0.0818380312905291
559,6.307,0.0648055423308653
560,6.315,0.0668850108624869
561,6.322,0.0681094347676194
562,6.330,0.142128937993532
563,6.337,0.238030743300554
564,6.345,0.208240988513673
565,6.352,0.130589255714434
566,6.360,0.0803263123908963
567,6.367,0.271432206589726
568,6.375,1.66721389522762
569,6.382,2.31302568143637
570,6.390,0.656092842797651
571,6.398,0.310572729411893
572,6.405,0.253271058723097
573,6.413,0.316236545017758
574,6.420,0.368893613295465
575,6.428,0.341901564526456
576,6.435,0.248072387394043
577,6.443,0.211565402021462
578,6.450,0.213733795194239
579,6.458,0.233734999097073
580,6.465,0.291802789771204
581,6.473,0.284052665276706
582,6.480,0.252327089455453
583,6.488,0.363366604829839
584,6.495,0.421783253711578
585,6.503,0.404367704759247
586,6.511,0.633081881809575
587,6.518,1.46293347342384
588,6.526,1.06948981881262
589,6.533,0.585028373800885
590,6.541,1.03018512742217
591,6.548,1.41296466545182
592,6.556,3.01430592265472
593,6.563,12.1061390836111
594,6.571,26.6546618401108
595,6.578,35.1129958574798
596,6.586,23.1994401851821
597,6.593,20.7210967554819
598,6.601,35.9291872561413
599,6.609,22.0902694553434
600,6.616,10.8944040407357
601,6.624,24.7680776955111
602,6.631,48.7230421530161
603,6.639,70.1339205095792
604,6.646,47.0178779570863
605,6.654,4.21482278003054
606,6.661,2.97530220697279
607,6.669,2.45730933188865
608,6.676,2.29792901351107
609,6.684,2.09076880140528
610,6.691,2.27884441744784
611,6.699,2.87775187562589
612,6.706,2.01597633783702
613,6.714,1.35210600911683
614,6.722,1.19288301895053
615,6.729,1.04661566496479
616,6.737,1.0037881897132
617,6.744,0.88891807441214
618,6.752,0.849387651240293
619,6.759,0.818435035761386
620,6.767,1.02079331724481
621,6.774,1.05842896152436
622,6.782,0.747849391755455
623,6.789,0.633711194654671
624,6.797,0.544088837084585
625,6.804,0.533110064080464
626,6.812,0.498128478321541
627,6.819,0.466813323921002
628,6.827,0.541681031416392
629,6.835,0.800868998954793
630,6.842,0.825678973837003
631,6.850,0.658883708458512
632,6.857,0.708373691439704
633,6.865,1.32250778432628
634,6.872,1.86625460356027
635,6.880,6.7872621607867
636,6.887,19.2282230394169
637,6.895,17.1582284022568
638,6.902,5.78334400429027
639,6.910,22.6095688386168
640,6.917,53.0190120882789
641,6.925,22.3342786706724
642,6.933,3.61500555436989
643,6.940,2.72612852209983
644,6.948,5.58821598016844
645,6.955,17.0225430805685
646,6.963,26.0097187792425
647,6.970,5.80455595138421
648,6.978,2.35479290135111
649,6.985,1.83935831978943
650,6.993,1.62634960243845
651,7.000,1.40177384138033
652,7.008,1.26892042749495
653,7.015,1.19496248748215
654,7.023,1.11387005510592
655,7.030,1.19247259752981
656,7.038,1.50694433043849
657,7.046,1.19012635507472
658,7.053,0.890518717952927
659,7.061,0.778343703314563
660,7.068,0.755490070537762
661,7.076,0.664041337645494
662,7.083,0.623286490568516
663,7.091,0.622109949162467
664,7.098,0.606486573747257
665,7.106,0.637774366719748
666,7.113,0.594016602914539
667,7.121,0.612417163276586
668,7.128,0.597108444283924
669,7.136,0.526078177072218
670,7.144,0.463755684336677
671,7.151,0.440436907283065
672,7.159,0.548630834140495
673,7.166,1.35362456837347
674,7.174,2.22920394661238
675,7.181,1.22003239593081
676,7.189,0.778986696873683
677,7.196,0.648575290441559
678,7.204,0.574795199711063
679,7.211,0.547119115240863
680,7.219,0.563317080645073
681,7.226,0.637404987441105
682,7.234,1.13727775680068
683,7.241,1.44588730375016
684,7.249,0.922435823770514
685,7.257,0.563830107420967
686,7.264,0.495645428726216
687,7.272,0.453036844899009
688,7.279,0.395995107776665
689,7.287,0.39576253563826
690,7.294,0.443754480433843
691,7.302,0.402356639797744
692,7.309,0.361588112006742
693,7.317,0.337106474261105
694,7.324,0.305545067008137
695,7.332,0.304163314891731
696,7.339,0.32500588270703
697,7.347,0.294956194353696
698,7.355,0.282431500664883
699,7.362,0.286932455578722
700,7.370,0.29289724689311
701,7.377,0.417460148080049
702,7.385,0.328302934786772
703,7.392,0.282807720300538
704,7.400,0.324766470211613
705,7.407,0.524279163178085
706,7.415,0.9421223712508
707,7.422,0.997248808409809
708,7.430,0.776784101915847
