#"+EI TIC Scan ACN-PA.d "
#Point,X(Minutes),Y(Counts)
0,2.095,0.1074908427058
1,2.102,0.10573033755819
2,2.110,0.10187589825774
3,2.117,0.103129591317402
4,2.125,0.0829904794015563
5,2.132,0.0770754488487897
6,2.140,0.0950072607500179
7,2.147,0.0774288835943327
8,2.155,0.073714484476079
9,2.162,0.0708670007714213
10,2.170,0.0714138243399973
11,2.178,0.0738811989786936
12,2.185,0.0692198614855889
13,2.193,0.0597438091569741
14,2.200,0.094153682496631
15,2.208,0.0671926131337952
16,2.215,0.0630247505684298
17,2.223,0.0558026783151646
18,2.230,0.0590769511465156
19,2.238,0.0616510230668853
20,2.245,0.0551958375256474
21,2.253,0.0497942876409338
22,2.260,0.0667124753662651
23,2.268,0.0644918381914384
24,2.275,0.0457064480368234
25,2.283,0.0633048309328223
26,2.291,0.0500743680053263
27,2.298,0.0578966124680041
28,2.306,0.0492474640723578
29,2.313,0.0650853418207464
30,2.321,0.0513347296450928
31,2.328,0.0362837443490452
32,2.336,0.0654121022458711
33,2.343,0.0554625807298307
34,2.351,0.0535820411403379
35,2.358,0.0586901735004497
36,2.366,0.0290216606151525
37,2.373,0.056389513364368
38,2.381,0.0809298881492396
39,2.389,0.224271017497287
40,2.396,0.353061305057131
41,2.404,0.167561412287899
42,2.411,0.060677410371616
43,2.419,0.0356368920789005
44,2.426,0.0514214211864524
45,2.434,0.0456664365561959
46,2.441,0.0483805486587618
47,2.449,0.058316733014593
48,2.456,0.0480271139132188
49,2.464,0.0504611456513922
50,2.471,0.0523083423403622
51,2.479,0.0705269031860875
52,2.486,0.0405449670358748
53,2.494,0.0575165034020428
54,2.502,0.0565362221266689
55,2.509,0.0387244446673232
56,2.517,0.0538087728638937
57,2.524,0.0554492435696216
58,2.532,0.0521016163571201
59,2.539,0.0527017885665327
60,2.547,0.0640450433244312
61,2.554,0.059343694350699
62,2.562,0.0454597105729537
63,2.569,0.0434791422818921
64,2.577,0.0412718422672746
65,2.584,0.0559093755968379
66,2.592,0.0509479519990269
67,2.600,0.0478670679907088
68,2.607,0.0539554816261946
69,2.615,0.054142201869123
70,2.622,0.0449328927446915
71,2.630,0.0518282045728321
72,2.637,0.0397980860641613
73,2.645,0.0460398770420526
74,2.652,0.0651520276217923
75,2.660,0.0549024200010456
76,2.667,0.0366305105144836
77,2.675,0.0429389872934207
78,2.682,0.0410317733835095
79,2.690,0.0395913600809192
80,2.697,0.0335496265061655
81,2.705,0.0422587921227531
82,2.713,0.0420053860787789
83,2.720,0.0649252958982364
84,2.728,0.0687463922981634
85,2.735,0.0535286924995012
86,2.743,0.055715986773805
87,2.750,0.0534153266377232
88,2.758,0.0484272287194939
89,2.765,0.0752349207399243
90,2.773,0.0815834089994889
91,2.780,0.0539954931068221
92,2.788,0.0464866719090598
93,2.795,0.0485872746420039
94,2.803,0.0599638723004254
95,2.810,0.0527818115277877
96,2.818,0.0432524105583362
97,2.826,0.0474402788640154
98,2.833,0.0502010710273134
99,2.841,0.0378908721542501
100,2.848,0.06229787533703
101,2.856,0.0427322613101786
102,2.863,0.041698631393968
103,2.871,0.0570897142753494
104,2.878,0.0550557973434511
105,2.886,0.0637049457390974
106,2.893,0.0436658625248205
107,2.901,0.0448728755237503
108,2.908,0.0482471770566701
109,2.916,0.0478870737310226
110,2.924,0.0524217082021401
111,2.931,0.0494008414147633
112,2.939,0.100355461993895
113,2.946,2.03088272795074
114,2.954,18.6785328270192
115,2.961,57.7729969986055
116,2.969,100
117,2.976,93.9160676503445
118,2.984,7.30504272692645
119,2.991,0.260001269697652
120,2.999,0.168548362143378
121,3.006,0.133178213268661
122,3.014,0.101062331484981
123,3.021,0.102902859593846
124,3.029,0.0930600353594791
125,3.037,0.104209901294345
126,3.044,0.0935268359668001
127,3.052,0.0779757071629086
128,3.059,0.0921931199458831
129,3.067,0.0802563615586766
130,3.074,0.0736544672551377
131,3.082,0.0651320218814785
132,3.089,0.0773288548927639
133,3.097,0.0493208184535083
134,3.104,0.0717739276656449
135,3.112,0.048633954702736
136,3.119,0.0988083514096311
137,3.127,0.0899724827710564
138,3.135,0.0701067826394987
139,3.142,0.0569430055130485
140,3.150,0.057449817600997
141,3.157,0.0537020755822204
142,3.165,0.0622111837956704
143,3.172,0.0498076248011429
144,3.180,0.0527484686272648
145,3.187,0.0480071081729051
146,3.195,0.0372706942045238
147,3.202,0.0443860691761156
148,3.210,0.0425188667468319
149,3.217,0.0502544196681501
150,3.225,0.044492766457789
151,3.232,0.0431723875970812
152,3.240,0.0396180344013376
153,3.248,0.0502810939885685
154,3.255,0.0485205888409581
155,3.263,0.0365304818129149
156,3.270,0.0488340121058736
157,3.278,0.0316424125962543
158,3.285,0.049340824193822
159,3.293,0.0497276018398879
160,3.300,0.0442860404745468
161,3.308,0.0542488991507963
162,3.315,0.0567762910104339
163,3.323,0.0479204166315455
164,3.330,0.0504944885519152
165,3.338,0.0342564959972515
166,3.346,0.0294884612224734
167,3.353,0.0459665226609022
168,3.361,0.0296351699847743
169,3.368,0.0434991480222058
170,3.376,0.0372773627846283
171,3.383,0.0389778507112974
172,3.391,0.0354568404160767
173,3.398,0.0358169437417243
174,3.406,0.0235334191890793
175,3.413,0.0488940293268148
176,3.421,0.0239868826361911
177,3.428,0.0363704358904048
178,3.436,0.0286548887094004
179,3.443,0.0257073763031739
180,3.451,0.047960428112173
181,3.459,0.0328160826946612
182,3.466,0.0430590217353033
183,3.474,0.0397180631029063
184,3.481,0.051541455628335
185,3.489,0.0925598918516353
186,3.496,0.0754749896236894
187,3.504,0.0362904129291498
188,3.511,0.0355035204768088
189,3.519,0.00972945837258904
190,3.526,0.0232600074047913
191,3.534,0.0250938669335521
192,3.541,0
193,3.549,0.0200457517943815
194,3.557,0.0258407479052656
195,3.564,0.0278679962570594
196,3.572,0.030635457000462
197,3.579,0.0367638821165753
198,3.587,0.0333562376831325
199,3.594,0.0209193357880821
200,3.602,0.0271077781251367
201,3.609,0.0311956177292471
202,3.617,0.0214128107158214
203,3.624,0.0242469572602699
204,3.632,0.0409984304829866
205,3.639,0.0224130977315091
206,3.647,0.0147508991913413
207,3.654,0.0292950723994405
208,3.662,0.0381576153584335
209,3.670,0.0257473877838014
210,3.677,0.0184853040499087
211,3.685,0.0134772003913656
212,3.692,0.00906926894223516
213,3.700,0.0323959621480724
214,3.707,0.0307088113816124
215,3.715,0.0420320603991972
216,3.722,0.0472869015216099
217,3.730,0.0405516356159794
218,3.737,0.0289149633334792
219,3.745,0.0442860404745468
220,3.752,0.0370973111218045
221,3.760,0.0452863274902345
222,3.767,0.0439125999886901
223,3.775,0.0380509180767602
224,3.783,0.034296507477879
225,3.790,0.0369972824202358
226,3.798,0.0300953020119906
227,3.805,0.0342831703176698
228,3.813,0.0323026020266082
229,3.820,0.0394179769982
230,3.828,0.0379508893751914
231,3.835,0.0344965648810165
232,3.843,0.0392379253353762
233,3.850,0.0340364328538002
234,3.858,0.0394113084180954
235,3.865,0.0357502579406784
236,3.873,0.0263742343136324
237,3.881,0.0207859641859904
238,3.888,0.0408583903007903
239,3.896,0.0424921924264135
240,3.903,0.0379708951155051
241,3.911,0.0322292476454577
242,3.918,0.0329361171365437
243,3.926,0.042725592730074
244,3.933,0.0262742056120636
245,3.941,0.0320358588224248
246,3.948,0.0298352273879118
247,3.956,0.045713116616928
248,3.963,0.0511013293414324
249,3.971,0.0856245685428672
250,3.978,0.0752749322205518
251,3.986,0.0327894083742429
252,3.994,0.0263608971534232
253,4.001,0.025947445186939
254,4.009,0.0257207134633831
255,4.016,0.0291150207366167
256,4.024,0.0270210865837771
257,4.031,0.0294617869020551
258,4.039,0.0350233827092787
259,4.046,0.03291611139623
260,4.054,0.0256273533419189
261,4.061,0.0279413506382098
262,4.069,0.0211860789922655
263,4.076,0.0377575005521584
264,4.084,0.0265809602968745
265,4.092,0.0438125712871213
266,4.099,0.016778147543135
267,4.107,0.033509615025538
268,4.114,0.0123902218343183
269,4.122,0.0340897814946369
270,4.129,0.0214128107158214
271,4.137,0.0207726270257813
272,4.144,0.0295084669627872
273,4.152,0.0120501242489845
274,4.159,0.0286949001900279
275,4.167,0.0338297068705581
276,4.174,0.0163380212562325
277,4.182,0.0206459240037942
278,4.189,0.0232400016644776
279,4.197,0.0201591176561595
280,4.205,0.0256807019827556
281,4.212,0.0376107917898576
282,4.220,0.0146575390698771
283,4.227,0.0300352847910494
284,4.235,0.0441593374525597
285,4.242,0.0134905375515748
286,4.250,0.028788260311492
287,4.257,0.0200190774739632
288,4.265,0.0285148485272041
289,4.272,0.0153043913400218
290,4.280,0.0172916282111881
291,4.287,0.0146575390698771
292,4.295,0.0229132412393529
293,4.303,0.0376641404306942
294,4.310,0.0267543433795937
295,4.318,0.0175316970949531
296,4.325,0.0240602370173415
297,4.333,0.0131170970657181
298,4.340,0.0264342515345737
299,4.348,0.030635457000462
300,4.355,0.0190054532980663
301,4.363,0.0216662167597956
302,4.370,0.0328627627553933
303,4.378,0.0289949862947342
304,4.385,0.0286682258696095
305,4.393,0.00763552421974945
306,4.400,0.0256206847618143
307,4.408,0.0473469187425512
308,4.416,0.101902572578158
309,4.423,0.142860991580517
310,4.431,0.0875184452925693
311,4.438,0.0346966222841541
312,4.446,0.0372773627846283
313,4.453,0.0293750953606955
314,4.461,0.0198590315514532
315,4.468,0.0403449096327373
316,4.476,0.0299619304098989
317,4.483,0.0198790372917669
318,4.491,0.0190921448394259
319,4.498,0.02287989833883
320,4.506,0.0315757267952084
321,4.513,0.0240802427576553
322,4.521,0.0304353995973245
323,4.529,0.0225131264330779
324,4.536,0.0244270089230937
325,4.544,0.0294551183219505
326,4.551,0.0277279560748631
327,4.559,0.0163246840960233
328,4.566,0.020519220981807
329,4.574,0.0169115191452267
330,4.581,0.0255673361209776
331,4.589,0.0225464693336008
332,4.596,0.020792632766095
333,4.604,0.0281814195219748
334,4.611,0.019252190761936
335,4.619,0.016458055698115
336,4.627,0.030715479961717
337,4.634,0.030875525884227
338,4.642,0.015477774422741
339,4.649,0.0164180442174875
340,4.657,0.0259207708665206
341,4.664,0.00542155562502734
342,4.672,0.0126436278782925
343,4.679,0.00616843659674082
344,4.687,0.0214861650969718
345,4.694,0.0314290180329076
346,4.702,0.0326760425124649
347,4.709,0.0196989856289431
348,4.717,0.0297218615261339
349,4.724,0.0240335626969232
350,4.732,0.0191054819996351
351,4.740,0.0388644848495195
352,4.747,0.00772221576110905
353,4.755,0.0319024872203331
354,4.762,0.0285548600078316
355,4.770,0.0186186756520004
356,4.777,0.0258807593858931
357,4.785,0.0312422977899792
358,4.792,0.0369305966191899
359,4.800,0.0164913985986379
360,4.807,0.0130237369442539
361,4.815,0.00575498463025657
362,4.822,0.034729965184677
363,4.830,0.0363771044705094
364,4.838,0.0150976653567797
365,4.845,0.037877534994041
366,4.853,0.011656678022814
367,4.860,0.017678405857254
368,4.868,0.0292083808580809
369,4.875,0.0199390545127082
370,4.883,0.0456997794567188
371,4.890,0.0533686465769912
372,4.898,0.0359836582443389
373,4.905,0.0532486121351086
374,4.913,0.0617177088679312
375,4.920,0.0450262528661557
376,4.928,0.0323092706067128
377,4.935,0.0343098446380882
378,4.943,0.0405382984557702
379,4.951,0.0287282430905508
380,4.958,0.0248271237293687
381,4.966,0.0139773438992095
382,4.973,0.0376774775909034
383,4.981,0.0417186371342817
384,4.988,0.0644118152301834
385,4.996,0.0331828546004133
386,5.003,0.0310889204475738
387,5.011,0.0264409201146782
388,5.018,0.0235600935094977
389,5.026,0.0408450531405811
390,5.033,0.0260808167890307
391,5.041,0.0300352847910494
392,5.049,0.031262303530293
393,5.056,0.0244670204037212
394,5.064,0.030201999293664
395,5.071,0.0317691156182414
396,5.079,0.0353701488747171
397,5.086,0.0318491385794964
398,5.094,0.015944575030062
399,5.101,0.0352234401124163
400,5.109,0.028034710759674
401,5.116,0.0406116528369207
402,5.124,0.021739571140946
403,5.131,0.0359169724432931
404,5.139,0.0354234975155538
405,5.146,0.0188787502760792
406,5.154,0.0348766739469779
407,5.162,0.0306954742214033
408,5.169,0.0250938669335521
409,5.177,0.0269077207219992
410,5.184,0.0246070605859175
411,5.192,0.034296507477879
412,5.199,0.0224130977315091
413,5.207,0.0353368059741942
414,5.214,0.0415385854714579
415,5.222,0.0325893509711053
416,5.229,0.0485806060618994
417,5.237,0.0264275829544691
418,5.244,0.028114733720929
419,5.252,0.0278479905167456
420,5.260,0.0384910443636627
421,5.267,0.0350433884495925
422,5.275,0.0321558932643073
423,5.282,0.0383976842421986
424,5.290,0.0298018844873889
425,5.297,0.0149976366552109
426,5.305,0.0179918291221695
427,5.312,0.0135305490322023
428,5.320,0.0244803575639303
429,5.327,0.0363170872495681
430,5.335,0.0115566493212452
431,5.342,0.0160579408918399
432,5.350,0.0256406905021281
433,5.357,0.0289949862947342
434,5.365,0.0292750666591267
435,5.373,0.0210126959095463
436,5.380,0.0230266071011309
437,5.388,0.0198990430320807
438,5.395,0.0187387100938829
439,5.403,0.0316290754360451
440,5.410,0.0297085243659247
441,5.418,0.017918474741019
442,5.425,0.0194322424247597
443,5.433,0.0242402886801653
444,5.440,0.0252605814361667
445,5.448,0.00575498463025657
446,5.455,0.0284014826654261
447,5.463,0.0184119496687583
448,5.470,0.0212661019535205
449,5.478,0.0295084669627872
450,5.486,0.0189454360771251
451,5.493,0.0183052523870849
452,5.501,0.0218729427430377
453,5.508,0.021419479295926
454,5.516,0.0180251720226924
455,5.523,0.0214528221964489
456,5.531,0.0266476460979204
457,5.538,0.0177717659787182
458,5.546,0.0348166567260366
459,5.553,0.0232666759848959
460,5.561,0.0201457804959503
461,5.568,0.0209393415283959
462,5.576,0.0194855910655964
463,5.584,0.031582395375313
464,5.591,0.0309488802653775
465,5.599,0.0147909106719688
466,5.606,0.0330094715176941
467,5.614,0.0297618730067614
468,5.621,0.0301486506528273
469,5.629,0.024613729166022
470,5.636,0.0411318020850783
471,5.644,0.0296218328245651
472,5.651,0.0337696896496168
473,5.659,0.0301353134926181
474,5.666,0.0294417811617413
475,5.674,0.0336029751470022
476,5.681,0.0368439050778303
477,5.689,0.0257473877838014
478,5.697,0.0183986125085491
479,5.704,0.0191855049608901
480,5.712,0.0197456656896752
481,5.719,0.0273411784287972
482,5.727,0.0268276977607441
483,5.734,0.0156911689860877
484,5.742,0.0253406043974218
485,5.749,0.0228132125377842
486,5.757,0.022959921300085
487,5.764,0.023780156652949
488,5.772,0.0253872844581539
489,5.779,0.0151176710970935
490,5.787,0.0258207421649519
491,5.795,0.0217262339807369
492,5.802,0.0290883464161984
493,5.810,0.0200257460540678
494,5.817,0.0297485358465522
495,5.825,0.0122635188123312
496,5.832,0.0280013678591511
497,5.840,0.0330694887386354
498,5.847,0.0331095002192629
499,5.855,0.0248004494089504
500,5.862,0.0232466702445822
501,5.870,0.0330161400977987
502,5.877,0.0193388823032956
503,5.885,0.0112565632165389
504,5.892,0.0221530231074303
505,5.900,0.0235800992498114
506,5.908,0.0231599787032226
507,5.915,0.0229665898801896
508,5.923,0.0302953594151282
509,5.930,0.0258074050047427
510,5.938,0.025834079325161
511,5.945,0.0316557497564635
512,5.953,0.0138373037170132
513,5.960,0.0138172979766994
514,5.968,0.0325026594297457
515,5.975,0.0110298314929831
516,5.983,0.0249938382319834
517,5.990,0.0350633941899062
518,5.998,0.020359175059297
519,6.006,0.0264942687555149
520,6.013,0.0263875714738416
521,6.021,0.021932959963979
522,6.028,0.025867422225684
523,6.036,0.025867422225684
524,6.043,0.00912928616317642
525,6.051,0.0084424224124042
526,6.058,0.0190721390991122
527,6.066,0.0219062856435607
528,6.073,0.0148976079536422
529,6.081,0.0314090122925938
530,6.088,0.0325893509711053
531,6.096,0.0243469859618386
532,6.103,0.0251338784141796
533,6.111,0.0175450342551623
534,6.119,0.0199390545127082
535,6.126,0.0293484210402772
536,6.134,0.0315357153145809
537,6.141,0.0111832088353885
538,6.149,0.0204658723409704
539,6.156,0.0273411784287972
540,6.164,0.0363304244097773
541,6.171,0.01637803273686
542,6.179,0.0179451490614374
543,6.186,0.0229999327807125
544,6.194,0.025674033402651
545,6.201,0.0351500857312658
546,6.209,0.0277412932350723
547,6.216,0.0191921735409947
548,6.224,0.0324159678883861
549,6.232,0.0291083521565121
550,6.239,0.0240602370173415
551,6.247,0.0319158243805423
552,6.254,0.0205325581420162
553,6.262,0.0242536258403745
554,6.269,0.0243603231220478
555,6.277,0.035163422891475
556,6.284,0.0236534536309618
557,6.292,0.0235000762885564
558,6.299,0.0362637386087315
559,6.307,0.0194322424247597
560,6.314,0.0309688860056912
561,6.322,0.0229665898801896
562,6.330,0.0216128681189589
563,6.337,0.0100562187977137
564,6.345,0.0272144754068101
565,6.352,0.0244336775031983
566,6.360,0.0293951011010092
567,6.367,0.0165180729190562
568,6.375,0.0177784345588227
569,6.382,0.0215861937985406
570,6.390,0.0463466317268635
571,6.397,0.00994952151604033
572,6.405,0.018465298309595
573,6.412,0.0299552618297944
574,6.420,0.0356502292391097
575,6.427,0.013423851750529
576,6.435,0.0297485358465522
577,6.443,0.0184452925692812
578,6.450,0.0309622174255866
579,6.458,0.0277879732958043
580,6.465,0.0181785493650978
581,6.473,0.0317224355575093
582,6.480,0.0133638345295877
583,6.488,0.0259207708665206
584,6.495,0.0270144180036725
585,6.503,0.028354802604694
586,6.510,0.0277479618151768
587,6.518,0.0166247702007296
588,6.525,0.0228265496979933
589,6.533,0.0158512149085978
590,6.541,0.00912261758307184
591,6.548,0.0101762532395962
592,6.556,0.0184719668896995
593,6.563,0.0348499996265595
594,6.571,0.0199523916729174
595,6.578,0.025914102286416
596,6.586,0.0233867104267785
597,6.593,0.0358102751616197
598,6.601,0.0136105719934573
599,6.608,0.0232933503053143
600,6.616,0.0252205699555392
601,6.623,0.0183786067682354
602,6.631,0.0285681971680407
603,6.638,0.0243536545419432
604,6.646,0.0413718709688433
605,6.654,0.0180518463431107
606,6.661,0.0339697470527543
607,6.669,0.0357302522003647
608,6.676,0.0260007938277756
609,6.684,0.0507345574356802
610,6.691,0.029141695057035
611,6.699,0.0374840887678705
612,6.706,0.00828904506999875
613,6.714,0.0242869687408974
614,6.721,0.0403915896934694
615,6.729,0.0166381073609388
616,6.736,0.0197990143305119
617,6.744,0.0306554627407758
618,6.752,0.0336963352684664
619,6.759,0.0305821083596253
620,6.767,0.0337430153291985
621,6.774,0.031342326491548
622,6.782,0.0213194505943572
623,6.789,0.0333562376831325
624,6.797,0.0305420968789978
625,6.804,0.0283147911240665
626,6.812,0.0379375522149822
627,6.819,0.0180051662823786
628,6.827,0.01252359343641
629,6.834,0.0252539128560622
630,6.842,0.0397580745835338
631,6.849,0.0409784247426728
632,6.857,0.0313156521711296
633,6.865,0.0277479618151768
634,6.872,0.024260294420479
635,6.880,0.034569919262167
636,6.887,0.0488406806859782
637,6.895,0.0345232392014349
638,6.902,0.0185586584310592
639,6.910,0.0275745787324576
640,6.917,0.0209260043681867
641,6.925,0.0185386526907454
642,6.932,0.0250205125524017
643,6.940,0.0296418385648789
644,6.947,0.0394313141584092
645,6.955,0.0446661495405082
646,6.963,0.0250338497126109
647,6.970,0.0300619591114677
648,6.978,0.0349233540077099
649,6.985,0.0297752101669706
650,6.993,0.028034710759674
651,7.000,0.0366371790945882
652,7.008,0.0413185223280066
653,7.015,0.0364104473710323
654,7.023,0.0285281856874132
655,7.030,0.0374507458673475
656,7.038,0.0538754586649396
657,7.045,0.0420987462002431
658,7.053,0.0361770470673719
659,7.060,0.0304087252769061
660,7.068,0.0434658051216829
661,7.076,0.0383443356013619
662,7.083,0.0311689434088288
663,7.091,0.0432657477185454
664,7.098,0.0297618730067614
665,7.106,0.03323620324125
666,7.113,0.044732835341554
667,7.121,0.0352567830129392
668,7.128,0.0601639297035629
669,7.136,0.0384043528223031
670,7.143,0.0381909582589564
671,7.151,0.0438925942483763
672,7.158,0.0464333232682231
673,7.166,0.0455530706944179
674,7.173,0.0366038361940653
675,7.181,0.0453063332305483
676,7.189,0.0227932067974704
677,7.196,0.0363504301500911
678,7.204,0.0423854951447402
679,7.211,0.0378908721542501
680,7.219,0.0434524679614737
681,7.226,0.040798373079849
682,7.234,0.0345032334611211
683,7.241,0.0365304818129149
684,7.249,0.0460932256828893
685,7.256,0.0493674985142404
686,7.264,0.046660054991779
687,7.271,0.0555025922104583
688,7.279,0.0272144754068101
689,7.287,0.0409784247426728
690,7.294,0.0550624659235557
691,7.302,0.0487673263048277
692,7.309,0.0438725885080626
693,7.317,0.0327360597334062
694,7.324,0.0464066489478048
695,7.332,0.0445127721981027
