#"+EI TIC Scan ACN-PEEK.d "
#Point,X(Minutes),Y(Counts)
0,2.095,0.101861846656385
1,2.102,0.143898401214035
2,2.110,0.104488745007657
3,2.117,0.112542506305792
4,2.125,0.095056634692266
5,2.132,0.0888386117713726
6,2.140,0.0929180303874657
7,2.147,0.101830941969899
8,2.155,0.0871944824503411
9,2.162,0.0688741843017049
10,2.170,0.0674093021622897
11,2.178,0.0733120972810304
12,2.185,0.0621925910835282
13,2.193,0.0524019864049048
14,2.200,0.0736026013339946
15,2.208,0.0480506065477388
16,2.215,0.0671002552974341
17,2.223,0.0656724587818015
18,2.230,0.0700609242627502
19,2.238,0.0595780546068504
20,2.245,0.0625572663840577
21,2.253,0.0617413826608391
22,2.260,0.0748573316053081
23,2.268,0.0590403130620017
24,2.276,0.05386686854432
25,2.283,0.0555480834891342
26,2.291,0.0554800931788659
27,2.298,0.0436806838786815
28,2.306,0.05799573465879
29,2.313,0.0418820311252223
30,2.321,0.0471049231412809
31,2.328,0.0470801993920925
32,2.336,0.0684476996282043
33,2.343,0.0448550619651326
34,2.351,0.0459985353650981
35,2.358,0.0522289201605857
36,2.366,0.0547631044524011
37,2.373,0.0533167651248772
38,2.381,0.145851577399922
39,2.389,0.313966890944037
40,2.396,0.207172656324558
41,2.404,0.0579462871604131
42,2.411,0.052358719843825
43,2.419,0.0562836150274903
44,2.426,0.051295598628722
45,2.434,0.036615872548084
46,2.441,0.0319121792649827
47,2.449,0.0500779539811912
48,2.456,0.0477910071812602
49,2.464,0.0321346930076787
50,2.471,0.0444409391662262
51,2.479,0.0407818242863366
52,2.486,0.0508629330179242
53,2.494,0.0530571657583985
54,2.502,0.0380065834399339
55,2.509,0.0345452585535519
56,2.517,0.041919116749005
57,2.524,0.0518209782989764
58,2.532,0.0447005385327048
59,2.539,0.0326909773644187
60,2.547,0.0354044088378503
61,2.554,0.0378767837566946
62,2.562,0.0306698108682635
63,2.569,0.0186540687626802
64,2.577,0.0385566868593768
65,2.584,0.0494351365022916
66,2.592,0.035614560705952
67,2.600,0.0466228100321063
68,2.607,0.0484956340331308
69,2.615,0.0536443548016241
70,2.622,0.0390820665296312
71,2.630,0.045046671021343
72,2.637,0.0410908711511922
73,2.645,0.0462272300450912
74,2.652,0.0465610006591352
75,2.660,0.0437301313770584
76,2.667,0.044657271971625
77,2.675,0.0376604509512957
78,2.682,0.0526615857713834
79,2.690,0.0485574434061019
80,2.697,0.0570871368761147
81,2.705,0.0445954625986539
82,2.713,0.0522289201605857
83,2.720,0.0461345159856345
84,2.728,0.0583789527712109
85,2.735,0.0492929749444581
86,2.743,0.0642013957050892
87,2.750,0.0506404192752282
88,2.758,0.0389708096582832
89,2.765,0.0583604099593195
90,2.773,0.0583913146458051
91,2.780,0.0511163514471058
92,2.788,0.0517653498633024
93,2.795,0.0535887263659501
94,2.803,0.0442864157337984
95,2.811,0.0463384869164392
96,2.818,0.0441071685521822
97,2.826,0.043371637013826
98,2.833,0.0471914562634404
99,2.841,0.0675452827828261
100,2.848,0.0496885549314732
101,2.856,0.0378520600075061
102,2.863,0.0646031566294014
103,2.871,0.0476921121845064
104,2.878,0.051629369242766
105,2.886,0.0592010174317266
106,2.893,0.0857975906211941
107,2.901,0.0668097512444699
108,2.908,0.0604557477030401
109,2.916,0.0300084505774726
110,2.924,0.0476364837488324
111,2.931,0.190150355008315
112,2.939,3.14891559163685
113,2.946,15.1270034272061
114,2.954,39.3392058830656
115,2.961,76.4929868613052
116,2.969,100
117,2.976,20.9470419764758
118,2.984,0.447234080007041
119,2.991,0.137711282979627
120,2.999,0.125448303382159
121,3.006,0.10217089352124
122,3.014,0.0930045635096252
123,3.022,0.0964720693333043
124,3.029,0.0984499692683798
125,3.037,0.0922443082220806
126,3.044,0.0685342327503638
127,3.052,0.088863335520561
128,3.059,0.0889993161410974
129,3.067,0.0683858902552331
130,3.074,0.0663585428217808
131,3.082,0.0659135153363889
132,3.089,0.0646896897515609
133,3.097,0.0421230876798096
134,3.104,0.0796351961359747
135,3.112,0.0735346110237264
136,3.119,0.0914469673107533
137,3.127,0.0654437641018084
138,3.135,0.0492064418222985
139,3.142,0.0576743259193402
140,3.150,0.0572602031204338
141,3.157,0.0855318103174183
142,3.165,0.0507887617703589
143,3.172,0.0519322351703244
144,3.180,0.0494474983768859
145,3.187,0.0369311003502366
146,3.195,0.0369249194129395
147,3.202,0.0464744675369756
148,3.210,0.0521176632892377
149,3.217,0.0270972291105335
150,3.225,0.0304163924390819
151,3.233,0.0536072691778414
152,3.240,0.0461221541110403
153,3.248,0.0516602739292515
154,3.255,0.0620751532748831
155,3.263,0.0422467064257519
156,3.270,0.0446016435359511
157,3.278,0.0411650423987575
158,3.285,0.0391933234009792
159,3.293,0.0410785092765979
160,3.300,0.0468700475239907
161,3.308,0.0448859666516181
162,3.315,0.0435199795089567
163,3.323,0.0379324121923686
164,3.330,0.013004692073121
165,3.338,0.0190249250005068
166,3.346,0.0383836206150577
167,3.353,0.0414617273890188
168,3.361,0.0282716071969845
169,3.368,0.0471976372007376
170,3.376,0.0274928090975485
171,3.383,0.0430687710862676
172,3.391,0.0279131128337521
173,3.398,0.0338900792000581
174,3.406,0.0315784086509387
175,3.413,0.0281479884510423
176,3.421,0.0360781310032353
177,3.428,0.0135733383044552
178,3.436,0.0423579632970999
179,3.443,0.0224429833258091
180,3.451,0.0351509904086687
181,3.459,0.0316340370866127
182,3.466,0.0372277853404979
183,3.474,0.050516800529286
184,3.481,0.0743752184961334
185,3.489,0.077756191197653
186,3.496,0.0381116593739848
187,3.504,0.0224738880122946
188,3.511,0.0284261306294123
189,3.519,0.025786870403546
190,3.526,0.0248041013733054
191,3.534,0.0260588316446189
192,3.541,0.0325364539319909
193,3.549,0.00393725705825954
194,3.557,0.0135362526806725
195,3.564,0.0163733029000463
196,3.572,0.0230919817420057
197,3.579,0.0389769905955803
198,3.587,0.0333337948433182
199,3.594,0.0274371806618745
200,3.602,0.0157304854211468
201,3.609,0.033154547661702
202,3.617,0.0258239560273286
203,3.624,0.0162187794676186
204,3.632,0.0326662536152302
205,3.639,0.0112802105672271
206,3.647,0.0158664660416833
207,3.654,0.0209101108761256
208,3.662,0.0341558595038339
209,3.670,0.0121455417888226
210,3.677,0.0208112158793718
211,3.685,0.00555666263010255
212,3.692,0.0224491642631062
213,3.700,0.0244579688846672
214,3.707,0.0239634939008983
215,3.715,0.0294768899699211
216,3.722,0.0152854579357548
217,3.730,0.0236359042241514
218,3.737,0.0270416006748595
219,3.745,0.0379324121923686
220,3.752,0.0205145308891105
221,3.760,0.0203414646447914
222,3.768,0.00941356750349965
223,3.775,0.0321408739449758
224,3.783,0.0239696748381954
225,3.790,0.0316958464595838
226,3.798,0.027573161282411
227,3.805,0.023722437346311
228,3.813,0.0199026180966966
229,3.820,0.0184810025183611
230,3.828,0.0255334519743644
231,3.835,0.00875838815000591
232,3.843,0.0305523730596184
233,3.850,0.00373328612745488
234,3.858,0.0191052771853693
235,3.865,0.0271590384835046
236,3.873,0.0144386695260507
237,3.881,0.0286610062467025
238,3.888,0.0300208124520668
239,3.896,0.0258610416511113
240,3.903,0.0171830056859678
241,3.911,0.0157552091703353
242,3.918,0.0232712289236219
243,3.926,0.0328702245460349
244,3.933,0.0290565862337176
245,3.941,0.0248102823106025
246,3.948,0.0232588670490277
247,3.956,0.0406829292895828
248,3.963,0.0661916575147588
249,3.971,0.0690163458595384
250,3.979,0.0244826926338556
251,3.986,0.0338962601373553
252,3.994,0.00995130904834828
253,4.001,0.0304102115017848
254,4.009,0.0146611832687467
255,4.016,0.0190558296869924
256,4.024,0.024167464831703
257,4.031,0.0216209186652933
258,4.039,0.0200262368426388
259,4.046,0.0158911897908717
260,4.054,0.0175909475475771
261,4.061,0.0286177396856227
262,4.069,0.0231723339268681
263,4.076,0.00786833317922196
264,4.084,0.0184315550199842
265,4.092,0.0285188446888689
266,4.099,0.0257188800932778
267,4.107,0.0241365601452174
268,4.114,0.0289638721742609
269,4.122,0.0171521009994823
270,4.129,0.00835662722569371
271,4.137,0.0219979558404171
272,4.144,0.0230734389301144
273,4.152,0.0308737817990681
274,4.159,0.0238955035906301
275,4.167,0.0220041367777142
276,4.174,0.0118055902374815
277,4.182,0.0265285828791993
278,4.189,0
279,4.197,0.0311704667893294
280,4.205,0.0230796198674115
281,4.212,0.0200447796545301
282,4.220,0.0334574135892604
283,4.227,0.0232465051744335
284,4.235,0.0262998881992062
285,4.242,0.0289267865504782
286,4.250,0.0158170185433064
287,4.257,0.0311210192909525
288,4.265,0.0146055548330727
289,4.272,0.0141172607866009
290,4.280,0.0217630802231269
291,4.287,0.0316525798985041
292,4.295,0.0190558296869924
293,4.303,0.021491118982054
294,4.310,0.0191176390599635
295,4.318,0.0249153582446534
296,4.325,0.0329073101698175
297,4.333,0.0128996161390701
298,4.340,0.0278203987742954
299,4.348,0.0250451579278927
300,4.355,0.0320048933244394
301,4.363,0.0264729544435253
302,4.370,0.0305214683731328
303,4.378,0.0107919165207553
304,4.385,0.0103221652861749
305,4.393,0.0162867697778868
306,4.400,0.0399597596258209
307,4.408,0.0535330979302761
308,4.416,0.118791433913171
309,4.423,0.0993400242391637
310,4.431,0.0371721569048239
311,4.438,0.0286980918704851
312,4.446,0.0218434324079893
313,4.453,0.0245259591949354
314,4.461,0.0385875915458623
315,4.468,0.0276905990910561
316,4.476,0.0393663896452983
317,4.483,0.028914424675884
318,4.491,0.0119106661715324
319,4.498,0.0420550973695414
320,4.506,0.0160271704114081
321,4.514,0.0143706792157825
322,4.521,0.0215900139788078
323,4.529,0.0272702953548526
324,4.536,0.0263184310110975
325,4.544,0.00812793254570061
326,4.551,0.0303545830661108
327,4.559,0.0145931929584784
328,4.566,0.021936146467446
329,4.574,0.0252923954197771
330,4.581,0.0234010286068612
331,4.589,0.0304843827493501
332,4.596,0.0212191577409811
333,4.604,0.0178752706632442
334,4.611,0.0238213323430648
335,4.619,0.0175415000492003
336,4.627,0.0285991968737314
337,4.634,0.0171088344384025
338,4.642,0.0362573781848516
339,4.649,0.0352498854054225
340,4.657,0.0145746501465871
341,4.664,0.015631590424393
342,4.672,0.0214045858598945
343,4.679,0.0286486443721082
344,4.687,0.028525025626166
345,4.694,0.0245383210695296
346,4.702,0.0158417422924948
347,4.709,0.0160395322860024
348,4.717,0.0310653908552785
349,4.725,0.0109649827650744
350,4.732,0.0232959526728104
351,4.740,0.0245135973203412
352,4.747,0.0180483369075633
353,4.755,0.0250698816770811
354,4.762,0.0198902562221023
355,4.770,0.0254840044759876
356,4.777,0.0209162918134227
357,4.785,0.0204527215161394
358,4.792,0.0157304854211468
359,4.800,0.0258795844630026
360,4.807,0.0132210248785199
361,4.815,0.0141419845357894
362,4.822,0.0347615913589508
363,4.830,0.0147291735790149
364,4.838,0.0111442299466907
365,4.845,0.0174302431778523
366,4.853,0.0209224727507198
367,4.860,0.0204589024534365
368,4.868,0.00707099226789468
369,4.875,0.0323448448757805
370,4.883,0.032820777047658
371,4.890,0.0143026889055142
372,4.898,0.0120281039801775
373,4.905,0.0184810025183611
374,4.913,0.0168183303854383
375,4.920,0.0268747153678375
376,4.928,0.0143274126547027
377,4.936,0.0210646343085534
378,4.943,0.0138576614201223
379,4.951,0.0249771676176245
380,4.958,0.0180359750329691
381,4.966,0.0179865275345922
382,4.973,0.0212995099258436
383,4.981,0.0219608702166344
384,4.988,0.0240067604619781
385,4.996,0.0249400819938418
386,5.003,0.0326477108033389
387,5.011,0.0209966439982852
388,5.018,0.0184871834556582
389,5.026,0.018363564709716
390,5.033,0.00292976427883049
391,5.041,0.0123804174061128
392,5.049,0.0231599720522739
393,5.056,0.0374255753340055
394,5.064,0.016299131652481
395,5.071,0.0232526861117306
396,5.079,0.0223997167647293
397,5.086,0.0144324885887536
398,5.094,0.0127080070828597
399,5.101,0.0274495425364688
400,5.109,0.0263431547602859
401,5.116,0.029637594339646
402,5.124,0.0256879754067922
403,5.131,0.0265965731894675
404,5.139,0.0130108730104181
405,5.146,0.0157119426092555
406,5.154,0.0181286890924258
407,5.162,0.0192103531194202
408,5.169,0.0264667735062282
409,5.177,0.0282036168867163
410,5.184,0.0210399105593649
411,5.192,0.026516221004605
412,5.199,0.0130170539477152
413,5.207,0.0412144898971344
414,5.214,0.00897472095540479
415,5.222,0.0323263020638891
416,5.229,0.0188147731324051
417,5.237,0.0216270996025905
418,5.244,0.0166019975800394
419,5.252,0.0263246119483946
420,5.260,0.0103098034115807
421,5.267,0.022492430824186
422,5.275,0.0192968862415797
423,5.282,0.0128563495779903
424,5.290,0.0281727122002307
425,5.297,0.0185057262675495
426,5.305,0.00801049473705551
427,5.312,0.0283210546953614
428,5.320,0.0252367669841031
429,5.327,0.0340878691935657
430,5.335,0.0228385633128242
431,5.342,0.0225913258209397
432,5.350,0.0145561073346958
433,5.357,0.0254221951030164
434,5.365,0.0107053833985958
435,5.373,0.0100563849823992
436,5.380,0.0204465405788423
437,5.388,0.0147044498298264
438,5.395,0.0211140818069303
439,5.403,0.0193030671788768
440,5.410,0.0303607640034079
441,5.418,0.022047403338794
442,5.425,0.0320543408228163
443,5.433,0.0305400111850241
444,5.440,0.0399473977512267
445,5.448,0.0178814516005414
446,5.455,0.0278451225234839
447,5.463,0.0174487859897436
448,5.471,0.0124978552147579
449,5.478,0.0282407025104989
450,5.486,0.0264544116316339
451,5.493,0.0210090058728794
452,5.501,0.027573161282411
453,5.508,0.0149207826352253
454,5.516,0.032487006433614
455,5.523,0.0198902562221023
456,5.531,0.0105261362169796
457,5.538,0.00220041367777142
458,5.546,0.0129861492612296
459,5.553,0.0287042728077822
460,5.561,0.0296190515277546
461,5.568,0.0376110034529188
462,5.576,0.00922813938458632
463,5.584,0.0159715419757341
464,5.591,0.0266212969386559
465,5.599,0.0167936066362499
466,5.606,0.0132704723768967
467,5.614,0.0267078300608155
468,5.621,0.0286733681212967
469,5.629,0.0178814516005414
470,5.636,0.0297364893363997
471,5.644,0.0406087580420175
472,5.651,0.021936146467446
473,5.659,0.0180977844059402
474,5.666,0.00843079847325904
475,5.674,0.0143212317174056
476,5.682,0.0214416714836771
477,5.689,0.0346441535503057
478,5.697,0.0281974359494192
479,5.704,0.027740046589433
480,5.712,0.0301197074488206
481,5.719,0.0305647349342126
482,5.727,0.0247052063765516
483,5.734,0.0320790645720047
484,5.742,0.0334883182757459
485,5.749,0.0195564856080584
486,5.757,0.0281170837645567
487,5.764,0.0131839392547372
488,5.772,0.00916014907431811
489,5.779,0.0262009932024524
490,5.787,0.0138205757963396
491,5.795,0.0124175030298955
492,5.802,0.0215282046058367
493,5.810,0.00300393552639582
494,5.817,0.0307254393039375
495,5.825,0.0074851150668011
496,5.832,0.021101719932336
497,5.840,0.00803521848624395
498,5.847,0.0187838684459195
499,5.855,0.0140183657898471
500,5.862,0.00680521196411892
501,5.870,0.0239264082771156
502,5.877,0.0415482605111783
503,5.885,0.0316278561493156
504,5.892,0.0137031379876945
505,5.900,0.0148527923249571
506,5.908,0.012670921459077
507,5.915,0.0143954029649709
508,5.923,0.0349284766659728
509,5.930,0.0112554868180386
510,5.938,0.0178567278513529
511,5.945,0.0158602851043861
512,5.953,0.0151185726287329
513,5.960,0.0121826274126053
514,5.968,0.0230981626793028
515,5.975,0.0184006503334987
516,5.983,0.0187035162610571
517,5.990,0.0136351476774263
518,5.998,0.0234875617290208
519,6.006,0.0421354495544039
520,6.013,0.0403182539890533
521,6.021,0.0357999888248654
522,6.028,0.0159406372892486
523,6.036,0.0350706382238063
524,6.043,0.0195132190469786
525,6.051,0.0294892518445153
526,6.058,0.0293100046628991
527,6.066,0.0158911897908717
528,6.073,0.0188580396934848
529,6.081,0.0228200205009328
530,6.088,0.0159035516654659
531,6.096,0.043927921370566
532,6.103,0.0354847610227127
533,6.111,0.018029794095672
534,6.119,0.0281294456391509
535,6.126,0.0291678431050655
536,6.134,0.025063700739784
537,6.141,0.0380251262518252
538,6.149,0.0261700885159668
539,6.156,0.0353425994648792
540,6.164,0.0311890096012208
541,6.171,0.0289885959234493
542,6.179,0.0291183956066887
543,6.186,0.043927921370566
544,6.194,0.0180174322210778
545,6.201,0.025619985096524
546,6.209,0.0223749930155409
547,6.217,0.0215034808566482
548,6.224,0.0184439168945784
549,6.232,0.0280367315796943
550,6.239,0.0196677424794064
551,6.247,0.0254901854132847
552,6.254,0.0138205757963396
553,6.262,0.0188024112578109
554,6.269,0.023833694217659
555,6.277,0.0295201565310009
556,6.284,0.030422573376379
557,6.292,0.0199026180966966
558,6.299,0.010272717787798
559,6.307,0.0246804826273632
560,6.314,0.0231537911149768
561,6.322,0.0308428771125826
562,6.330,0.0136969570503974
563,6.337,0.0224306214512149
564,6.345,0.0338777173254639
565,6.352,0.0102418131013125
566,6.360,0.0140616323509269
567,6.367,0.0187591446967311
568,6.375,0.033717012955739
569,6.382,0.0284755781277891
570,6.390,0.0174240622405552
571,6.397,0.0283828640683325
572,6.405,0.0167750638243585
573,6.412,0.0165525500816625
574,6.420,0.0177022044189251
575,6.428,0.0390882474669283
576,6.435,0.0275113519094399
577,6.443,0.0324066542487516
578,6.450,0.0249277201192476
579,6.458,0.0233515811084843
580,6.465,0.0352869710292052
581,6.473,0.0210213677474736
582,6.480,0.0240253032738694
583,6.488,0.0222019267712218
584,6.495,0.0196677424794064
585,6.503,0.0234751998544266
586,6.510,0.0320790645720047
587,6.518,0.0414431845771275
588,6.525,0.0295696040293777
589,6.533,0.023611180474963
590,6.541,0.0273135619159323
591,6.548,0.0188518587561877
592,6.556,0.0320543408228163
593,6.563,0.0219299655301489
594,6.571,0.0351818950951543
595,6.578,0.0205887021366759
596,6.586,0.0245815876306094
597,6.593,0.0314856945914821
598,6.601,0.0327342439254984
599,6.608,0.023054896118223
600,6.616,0.0383650778031663
601,6.623,0.0239140464025214
602,6.631,0.0194575906113046
603,6.639,0.0265594875656848
604,6.646,0.0213736811734089
605,6.654,0.0289453293623696
606,6.661,0.0173931575540696
607,6.669,0.0173189863065043
608,6.676,0.0203661883939799
609,6.684,0.0222081077085189
610,6.691,0.0316834845849896
611,6.699,0.0156068666752046
612,6.706,0.0264235069451484
613,6.714,0.0349655622897554
614,6.721,0.0200509605918272
615,6.729,0.035837074448648
616,6.736,0.0163485791508579
617,6.744,0.0364798919275475
618,6.752,0.0163053125897781
619,6.759,0.0172015484978592
620,6.767,0.016076617909785
621,6.774,0.0189940203140213
622,6.782,0.0275546184705196
623,6.789,0.0255396329116615
624,6.797,0.0236791707852312
625,6.804,0.0252553097959945
626,6.812,0.0278265797115925
627,6.819,0.030200059633683
628,6.827,0.0243405310760221
629,6.834,0.0158108376060093
630,6.842,0.0267634584964895
631,6.849,0.0381054784366877
632,6.857,0.0133693673736505
633,6.865,0.0260526507073217
634,6.872,0.0274309997245774
635,6.880,0.016299131652481
636,6.887,0.0179308990989182
637,6.895,0.0278389415861867
638,6.902,0.0543428007161976
639,6.910,0.0208483015031545
640,6.917,0.0382414590572241
641,6.925,0.0206566924469441
642,6.932,0.0285559303126516
643,6.940,0.00862240752946947
644,6.947,0.0335006801503402
645,6.955,0.0326168061168533
646,6.963,0.0296437752769431
647,6.970,0.0314115233439167
648,6.978,0.0261700885159668
649,6.985,0.0508876567671127
650,6.993,0.0578164874771738
651,7.000,0.049787449928227
652,7.008,0.0356083797686549
653,7.015,0.0319739886379538
654,7.023,0.032598263304962
655,7.030,0.0424877629803392
656,7.038,0.0394158371436751
657,7.045,0.0572911078069194
658,7.053,0.0542439057194438
659,7.060,0.0422405254884547
660,7.068,0.0355156657091983
661,7.076,0.034773953233545
662,7.083,0.0219237845928518
663,7.091,0.0317638367698521
664,7.098,0.0295572421547835
665,7.106,0.0215652902296193
666,7.113,0.0406087580420175
667,7.121,0.0412330327090257
668,7.128,0.0499976017963287
669,7.136,0.0611850983040991
670,7.143,0.0295016137191095
671,7.151,0.0220844889625766
672,7.158,0.0369558240994251
673,7.166,0.0405407677317493
674,7.174,0.0494289555649945
675,7.181,0.051518112371418
676,7.189,0.102189436333132
677,7.196,0.11237562099877
678,7.204,0.0626808851299999
679,7.211,0.0734975253999437
680,7.219,0.0559807490999319
681,7.226,0.0518024354870851
682,7.234,0.0537926972967547
683,7.241,0.0719275673264776
684,7.249,0.0621493245224484
685,7.256,0.0654437641018084
686,7.264,0.0589228752533566
687,7.271,0.0394714655793491
688,7.279,0.0529211851378621
689,7.287,0.0533353079367685
690,7.294,0.0387297531036959
691,7.302,0.0561847200307366
692,7.309,0.041529717699287
693,7.317,0.0327527867373898
