#"+EI TIC Scan ACN-TPU.d "
#Point,X(Minutes),Y(Counts)
0,2.095,0.274360720369747
1,2.102,0.285504951680558
2,2.110,0.247910136176022
3,2.117,0.23028144009708
4,2.125,0.2313822910926
5,2.132,0.22608915822373
6,2.140,0.230485022130498
7,2.147,0.234579283024795
8,2.155,0.1744170221121
9,2.162,0.178662084512633
10,2.170,0.163559313663137
11,2.178,0.158183239965837
12,2.185,0.16895046751106
13,2.193,0.143887257174702
14,2.200,0.180984427708661
15,2.208,0.155219990368308
16,2.215,0.150831666536852
17,2.223,0.163084288918495
18,2.230,0.118665705256797
19,2.238,0.120618584762548
20,2.245,0.114963528278713
21,2.253,0.123136969916683
22,2.260,0.115574274378967
23,2.268,0.123317931724166
24,2.275,0.093971958610717
25,2.283,0.114352782178459
26,2.291,0.140139839744747
27,2.298,0.199525472900328
28,2.306,0.176053218454757
29,2.313,0.146111579391677
30,2.321,0.125881557330171
31,2.328,0.132531903755161
32,2.336,0.140290641250983
33,2.343,0.106933348071667
34,2.351,0.1059305180552
35,2.358,0.124320761740632
36,2.366,0.10876558637243
37,2.373,0.111103009719082
38,2.381,0.226692364248673
39,2.389,0.381173427236426
40,2.396,0.279254229247093
41,2.404,0.108456443284647
42,2.411,0.0914535734565824
43,2.419,0.106578964532014
44,2.426,0.0897796767373672
45,2.434,0.0845317843203681
46,2.441,0.0865676046545488
47,2.449,0.0863263222445718
48,2.456,0.059355472854334
49,2.464,0.0681924411197404
50,2.471,0.0988654674880624
51,2.479,0.115310371743055
52,2.486,0.0717211963656535
53,2.494,0.0885581845368588
54,2.502,0.0759964190674329
55,2.509,0.0777758768410131
56,2.517,0.0811161302041317
57,2.524,0.0811990710325613
58,2.532,0.0818701377353097
59,2.539,0.0755590946993497
60,2.547,0.085052049516881
61,2.554,0.0888974879258889
62,2.562,0.0809427084719608
63,2.569,0.0836722157348252
64,2.577,0.0689238284249831
65,2.584,0.0859040780271122
66,2.592,0.0668880080908024
67,2.600,0.0798116971751937
68,2.607,0.0758305374105738
69,2.615,0.0759059381636916
70,2.622,0.0708013071776163
71,2.630,0.0851048300440634
72,2.637,0.0816665557018917
73,2.645,0.0841170801782202
74,2.652,0.0670011092204791
75,2.660,0.0457833372931295
76,2.667,0.0876684556500687
77,2.675,0.0712160113197643
78,2.682,0.0540321796842171
79,2.690,0.0926976858830261
80,2.697,0.0595288945865049
81,2.705,0.0714723738803648
82,2.713,0.0541226605879585
83,2.720,0.0897495164361201
84,2.728,0.0712687918469467
85,2.735,0.0857155761443176
86,2.743,0.091672235640624
87,2.750,0.101587434675615
88,2.758,0.0928484873892617
89,2.765,0.0866957859348491
90,2.773,0.0911368902934876
91,2.780,0.0680944201406872
92,2.788,0.060931348594496
93,2.795,0.0840039790485435
94,2.803,0.076132140423045
95,2.811,0.0547861872153951
96,2.818,0.047653275970451
97,2.826,0.0721434405831132
98,2.833,0.0627560468199468
99,2.841,0.0729728488674091
100,2.848,0.0918079569962361
101,2.856,0.0677626568269689
102,2.863,0.0685694448853294
103,2.871,0.0670915901242205
104,2.878,0.0904205831388685
105,2.886,0.080249021543277
106,2.893,0.0660661398818184
107,2.901,0.0691726509102718
108,2.908,0.0568747880767583
109,2.916,0.0806109451582424
110,2.924,0.0530444298183739
111,2.931,0.121199170561555
112,2.939,2.34990971136818
113,2.946,14.3619886104146
114,2.954,41.1116348112308
115,2.961,82.1127471985416
116,2.969,100
117,2.976,23.0528679166553
118,2.984,0.508879682792048
119,2.991,0.154601704192742
120,2.999,0.107551634247233
121,3.006,0.101331072115014
122,3.014,0.0834535535507836
123,3.021,0.098910707939933
124,3.029,0.134205800474376
125,3.037,0.101655295353421
126,3.044,0.0962264411289393
127,3.052,0.0862132211148951
128,3.059,0.091845657372795
129,3.067,0.0920039989543424
130,3.074,0.0800906799617296
131,3.082,0.0666316455302019
132,3.089,0.0797212162714524
133,3.097,0.0574855341770125
134,3.104,0.0528257676343323
135,3.112,0.0856401753911998
136,3.119,0.0931727106276683
137,3.127,0.087864497608175
138,3.135,0.0669784889945438
139,3.142,0.0708842480060459
140,3.150,0.0754610737202965
141,3.157,0.0733347724823745
142,3.165,0.0704167633367156
143,3.172,0.0712386315456996
144,3.180,0.0696401355796022
145,3.187,0.0716457956125357
146,3.195,0.0596419957161816
147,3.202,0.0495458348737079
148,3.210,0.072150980658425
149,3.217,0.068893668123736
150,3.225,0.0630576498324181
151,3.232,0.0589332286368743
152,3.240,0.0626957262174526
153,3.248,0.0649351285850513
154,3.255,0.0704243034120273
155,3.263,0.0586768660762737
156,3.270,0.0635703749536191
157,3.278,0.0565807251395988
158,3.285,0.0564073034074279
159,3.293,0.0515741151325768
160,3.300,0.0558267176084208
161,3.308,0.0722942420893488
162,3.315,0.061994499213457
163,3.323,0.0547937272907069
164,3.330,0.061926638535651
165,3.338,0.038974649286592
166,3.346,0.0993027918561456
167,3.353,0.10300496883423
168,3.361,0.0606523658079602
169,3.368,0.0663375825930425
170,3.376,0.042405383553452
171,3.383,0.0565430247630399
172,3.391,0.0478493179285573
173,3.398,0.0610218294982374
174,3.406,0.0436042555280251
175,3.413,0.0372555121155061
176,3.421,0.030363883280539
177,3.428,0.0488672280956477
178,3.436,0.032113180752872
179,3.443,0.0435288547749073
180,3.451,0.0149670494938838
181,3.459,0.0319699193219482
182,3.466,0.0467937073849081
183,3.474,0.0455420548831526
184,3.481,0.0730482496205269
185,3.489,0.0882490414490758
186,3.496,0.0375872754292244
187,3.504,0.0148991888160777
188,3.511,0.0245278649892211
189,3.519,0.037225351814259
190,3.526,0.0287653873144416
191,3.534,0.0238190979099137
192,3.541,0.046077400230289
193,3.549,0.033930338903011
194,3.557,0.0220019397597747
195,3.564,0.0184656444385498
196,3.572,0.0328521081334265
197,3.579,0.0267898875827552
198,3.587,0.0460246197031065
199,3.594,0.0256136358341174
200,3.602,0.021338413132338
201,3.609,0.0315250548785531
202,3.617,0.0182997627816906
203,3.624,0.0262847025368659
204,3.632,0.00891236901852423
205,3.639,0.0331461710705859
206,3.647,0.0331386309952741
207,3.654,0.0160302001128448
208,3.662,0.0214288940360794
209,3.670,0.0272121318002148
210,3.677,0.0131649714943683
211,3.685,0.0365015045843281
212,3.692,0.0324600242172139
213,3.700,0.0110235901058227
214,3.707,0.0266390860765196
215,3.715,0.0338172377733343
216,3.722,0.02943645401719
217,3.730,0.0246183458929624
218,3.737,0.04171923670008
219,3.745,0.0277776374485984
220,3.752,0.0297682173309083
221,3.760,0.0396834163658993
222,3.767,0.0194835546056401
223,3.775,0.0389897294372156
224,3.783,0.0155325551422673
225,3.790,0.0243695234076737
226,3.798,0.0234797945208836
227,3.805,0.0364939645090163
228,3.813,0.0386127256716266
229,3.820,0.0196494362624993
230,3.828,0.0375872754292244
231,3.835,0.0293384330381369
232,3.843,0.0214967547138854
233,3.850,0.0250707504116693
234,3.858,0.0323393830122254
235,3.865,0.0372404319648826
236,3.873,0.041651376022274
237,3.881,0.0240528402445789
238,3.888,0.047653275970451
239,3.896,0.0293459731134487
240,3.903,0.0430387498796415
241,3.911,0.00945525444097241
242,3.918,0.033485474459616
243,3.926,0.0316607762341652
244,3.933,0.0180358601457783
245,3.941,0.0312988526191997
246,3.948,0.0388690882322271
247,3.956,0.0458134975943767
248,3.963,0.0695119542993019
249,3.971,0.0596042953396227
250,3.978,0.0449614690841455
251,3.986,0.010601345888363
252,3.994,0.021579695542315
253,4.001,0.0205467052246011
254,4.009,0.035166911254143
255,4.016,0.0209086288395666
256,4.024,0.0158944787572327
257,4.031,0.0319020586441421
258,4.039,0.0202300220615064
259,4.046,0.0364034836052749
260,4.054,0.0130141699881327
261,4.061,0.0338850984511403
262,4.069,0.0257493571897295
263,4.076,0.0308012076486222
264,4.084,0.0217455771991742
265,4.092,0.0298059177074672
266,4.099,0.0196494362624993
267,4.107,0.0293987536406311
268,4.114,0.0271291909717853
269,4.122,0.0225146648809758
270,4.129,0.0170405702046233
271,4.137,0.0238643383617844
272,4.144,0.0203657434171184
273,4.152,0.0344053636476532
274,4.159,0.026865288335873
275,4.167,0.0480604400372872
276,4.174,0.0187220069991503
277,4.182,0.0224317240525462
278,4.189,0.0362903824755982
279,4.197,0.0196041958106286
280,4.205,0.0242715024286206
281,4.212,0.0296852765024788
282,4.220,0.0290820704775363
283,4.227,0.023811557834602
284,4.235,0.0225599053328464
285,4.242,0.032663606250632
286,4.250,0.0263751834406072
287,4.257,0.0373987735464299
288,4.265,0.0251009107129164
289,4.272,0.0078190580983161
290,4.280,0.0331461710705859
291,4.287,0.0188652684300741
292,4.295,0.0211423711742318
293,4.303,0.016331803125316
294,4.310,0.024120700922385
295,4.318,0.0216852565966799
296,4.325,0.0238266379852255
297,4.333,0.0276946966201688
298,4.340,0.0356570161494087
299,4.348,0.0364411839818338
300,4.355,0.0215495352410679
301,4.363,0.0243469031817384
302,4.370,0.0190236100116215
303,4.378,0.0110763706330052
304,4.385,0.0220547202869572
305,4.393,0.0144995648245534
306,4.400,0.0341113007104938
307,4.408,0.0487918273425299
308,4.416,0.140758125920313
309,4.423,0.118854207139592
310,4.431,0.0356268558481616
311,4.438,0.0330029096396621
312,4.446,0.0230952506799828
313,4.453,0.0119359392185481
314,4.461,0.025764437340353
315,4.468,0.0285165648291528
316,4.476,0.0235853555752486
317,4.483,0.0132026718709272
318,4.491,0.0357324169025265
319,4.498,0.038974649286592
320,4.506,0.0325655852715788
321,4.513,0.0248973286794983
322,4.521,0.0288558682181829
323,4.529,0.0242338020520617
324,4.536,0.0208030677852017
325,4.544,0.0168219080205817
326,4.551,0.0133534733771628
327,4.559,0.0298963986112086
328,4.566,0.00955327542002555
329,4.574,0.0146956067826597
330,4.581,0.00781151802300432
331,4.589,0.0194684744550166
332,4.596,0.00470500699455086
333,4.604,0.0251084507882282
334,4.611,0.0313742533723175
335,4.619,0.0236984567049253
336,4.627,0.0272272119508384
337,4.634,0.0332517321249508
338,4.642,0.0160075798869094
339,4.649,0.00750237493522133
340,4.657,0.0211800715507907
341,4.664,0.0219039187807216
342,4.672,0.0320604002256895
343,4.679,0.031291312543888
344,4.687,0.0234194739183894
345,4.694,0.0129161490090795
346,4.702,0
347,4.709,0.0346315659070066
348,4.717,0.0119133189926128
349,4.724,0.0134514943562159
350,4.732,0.0175909957023833
351,4.740,0.0104505443821274
352,4.747,0.00260132598256418
353,4.755,0.0245731054410918
354,4.762,0.0147257670839068
355,4.770,0.0177568773592424
356,4.777,0.016844528246517
357,4.785,0.0187974077522681
358,4.792,0.0110386702564463
359,4.800,0.022507124805664
360,4.807,0.00646184454219566
361,4.815,0.0294213738665665
362,4.822,0.0371876514377001
363,4.830,0.0360038596137506
364,4.838,0.0242715024286206
365,4.845,0.0202451022121299
366,4.853,0.00548917482697601
367,4.860,0.031117890811717
368,4.868,0.0286975266366356
369,4.875,0.0204713044714833
370,4.883,0.0291423910800306
371,4.890,0.0137455572933754
372,4.898,0.0184882646644851
373,4.905,0.0488370677944005
374,4.913,0.0228615083453177
375,4.920,0.050812567526087
376,4.928,0.030363883280539
377,4.935,0.0254854545538172
378,4.943,0.018767247451021
379,4.951,0.00146277461048536
380,4.958,0.0456777762387646
381,4.966,0.0226805465378349
382,4.973,0.00484072835016291
383,4.981,0.0293610532640722
384,4.988,0.00600189994817706
385,4.996,0.00384543840900792
386,5.003,0.00670312695217262
387,5.011,0.0359661592371917
388,5.018,0.0926750656570908
389,5.026,0.250209859146115
390,5.033,0.502719441262323
391,5.041,1.21720943773131
392,5.049,1.06771236452464
393,5.056,4.02502038270859
394,5.064,5.75256473776711
395,5.071,1.17717163782575
396,5.079,0.378180017337649
397,5.086,0.264814985025033
398,5.094,0.239020387383433
399,5.101,0.181625334110162
400,5.109,0.149617714411655
401,5.116,0.134545103863406
402,5.124,0.130858007035946
403,5.131,0.103427213051689
404,5.139,0.101889037688086
405,5.146,0.074895568071913
406,5.154,0.09029994193388
407,5.162,0.0732669118045685
408,5.169,0.0739153582813816
409,5.177,0.0753178122893727
410,5.184,0.0733498526329981
411,5.192,0.0604638639251657
412,5.199,0.0640303195476377
413,5.207,0.0485957853844236
414,5.214,0.0465448848996194
415,5.222,0.0517098364881888
416,5.229,0.0401207407339826
417,5.237,0.0483997434263173
418,5.244,0.0499831592417911
419,5.252,0.0587673469800151
420,5.260,0.0444336638123209
421,5.267,0.0526221856009142
422,5.275,0.052388443266249
423,5.282,0.0389143286840978
424,5.290,0.0338926385264521
425,5.297,0.0265033647209075
426,5.305,0.0290669903269128
427,5.312,0.0381603211529197
428,5.320,0.0237135368555488
429,5.327,0.0355288348691084
430,5.335,0.0335759553633574
431,5.342,0.0326937665518791
432,5.350,0.0255231549303761
433,5.357,0.00645430446688388
434,5.365,0.0125089849422434
435,5.373,0.0233214529393362
436,5.380,0.0402413819389711
437,5.388,0.0357550371284618
438,5.395,0.0392083916212572
439,5.403,0.0412215917295025
440,5.410,0.0409576890935902
441,5.418,0.0233893136171423
442,5.425,0.0498248176602438
443,5.433,0.0786882259537385
444,5.440,0.0975082539319419
445,5.448,0.0859266982530475
446,5.455,0.0609992092723021
447,5.463,0.040965229168902
448,5.470,0.0374213937723653
449,5.478,0.0387258268013033
450,5.486,0.0368634281992935
451,5.493,0.0287955476156887
452,5.501,0.0217380371238624
453,5.508,0.0220773405128925
454,5.516,0.0418398779050685
455,5.523,0.0189180489572566
456,5.531,0.0360868004421802
457,5.538,0.0360491000656213
458,5.546,0.0381603211529197
459,5.553,0.032113180752872
460,5.561,0.0383337428850907
461,5.568,0.0333799134052511
462,5.576,0.00481056804891579
463,5.584,0.0195815755846933
464,5.591,0.00581339806538256
465,5.599,0.0196795965637464
466,5.606,0.0233968536924541
467,5.614,0.0226202259353407
468,5.621,0.0344204437982767
469,5.629,0.0600189994817706
470,5.636,0.0239849795667729
471,5.644,0.0297003566531023
472,5.651,0.0303563432052272
473,5.659,0.0323695433134725
474,5.666,0.0286749064107002
475,5.674,0.0234496342196365
476,5.681,0.0244373840854797
477,5.689,0.0552612119600373
478,5.697,0.0558870382109151
479,5.704,0.0529841092158797
480,5.712,0.0472913523554856
481,5.719,0.0484525239534997
482,5.727,0.034239481990794
483,5.734,0.0502470618777034
484,5.742,0.0381452410022962
485,5.749,0.0433177326661774
486,5.757,0.0425561850596876
487,5.764,0.0439586390676787
488,5.772,0.0407842673614193
489,5.779,0.0253648133488287
490,5.787,0.0335231748361749
491,5.795,0.0384845443913263
492,5.802,0.0257267369637941
493,5.810,0.0278681183523397
494,5.817,0.0473969134098505
495,5.825,0.0414477939888559
496,5.832,0.0239548192655258
497,5.840,0.0222507622450635
498,5.847,0.0144467842973709
499,5.855,0.0109708095786402
500,5.862,0.0501867412752092
501,5.870,0.0304242038830332
502,5.877,0.0357550371284618
503,5.885,0.0366975465424344
504,5.892,0.0213007127557791
505,5.900,0.0150726105482487
506,5.908,0.0190914706894275
507,5.915,0.0358982985593857
508,5.923,0.034616485756383
509,5.930,0.0187220069991503
510,5.938,0.0335608752127338
511,5.945,0.024188561600191
512,5.953,0.0253572732735169
513,5.960,0.0235099548221308
514,5.968,0.0260962006540714
515,5.975,0.0342922625179765
516,5.983,0.0345033846267063
517,5.990,0.0319472990960128
518,5.998,0.0273553932311387
519,6.006,0.0145598854270476
520,6.013,0.0215269150151326
521,6.021,0.04116881120232
522,6.028,0.0346541861329419
523,6.036,0.0655835750618644
524,6.043,0.0644224034638503
525,6.051,0.0382055616047904
526,6.058,0.0264882845702839
527,6.066,0.0142356621886411
528,6.073,0.0373384529439357
529,6.081,0.0404600441230127
530,6.088,0.0254100538006994
531,6.096,0.0320679403010013
532,6.103,0.0451650511175636
533,6.111,0.0330632302421563
534,6.119,0.0355891554716027
535,6.126,0.0277776374485984
536,6.134,0.0320905605269367
537,6.141,0.0482112415435228
538,6.149,0.0437927574108196
539,6.156,0.0234647143702601
540,6.164,0.013964219477417
541,6.171,0.0434082135699188
542,6.179,0.0321433410541191
543,6.186,0.027928438954834
544,6.194,0.0224166439019226
545,6.201,0.028818167841624
546,6.209,0.0410783302985787
547,6.216,0.0376249758057833
548,6.224,0.0304694443349039
549,6.232,0.0313063926945115
550,6.239,0.050503424438304
551,6.247,0.0168068278699581
552,6.254,0.0483318827485113
553,6.262,0.0125542253941141
554,6.269,0.0233742334665187
555,6.277,0.018013239919843
556,6.284,0.0205014647727304
557,6.292,0.0357097966765912
558,6.299,0.0251310710141635
559,6.307,0.0123808036619431
560,6.314,0.0222507622450635
561,6.322,0.0241659413742556
562,6.330,0.0595967552643109
563,6.337,0.0407164066836132
564,6.345,0.0384468440147674
565,6.352,0.0215042947891972
566,6.360,0.0341339209364291
567,6.367,0.0358153577309561
568,6.375,0.0454666541300348
569,6.382,0.0373686132451828
570,6.390,0.0399473190018117
571,6.397,0.0284562442266586
572,6.405,0.00369463690277231
573,6.412,0.0304166638077214
574,6.420,0.0212102318520378
575,6.427,0.0437927574108196
576,6.435,0.0253648133488287
577,6.443,0.0429784292771473
578,6.450,0.0260358800515771
579,6.458,0.0247239069473274
580,6.465,0.00681622808184933
581,6.473,0.0469218886652084
582,6.480,0.0678832980319574
583,6.488,0.0881887208465816
584,6.495,0.0724827439721433
585,6.503,0.0601848811386298
586,6.510,0.0311405110376523
587,6.518,0.0321885815059898
588,6.525,0.0793592926564869
589,6.533,0.0692329715127661
590,6.541,0.059664615942117
591,6.548,0.0599888391805235
592,6.556,0.0628163674224411
593,6.563,0.0344883044760828
594,6.571,0.0313742533723175
595,6.578,0.0530218095924386
596,6.586,0.0333422130286922
597,6.593,0.0371273308352058
598,6.601,0.0357927375050207
599,6.608,0.03540819366412
600,6.616,0.0468540279874023
601,6.623,0.0382809623579082
602,6.631,0.0314873545019942
603,6.638,0.0296928165777905
604,6.646,0.0287880075403769
605,6.654,0.0536853362198752
606,6.661,0.0497192566058788
607,6.669,0.0249802695079279
608,6.676,0.0288784884441183
609,6.684,0.0324374039912785
610,6.691,0.0403921834452067
611,6.699,0.0243619833323619
612,6.706,0.023705996780237
613,6.714,0.0559096584368504
614,6.721,0.0418323378297567
615,6.729,0.0388841683828506
616,6.736,0.0349407089947896
617,6.744,0.0481660010916521
618,6.752,0.0287804674650651
619,6.759,0.0299944195902618
620,6.767,0.0445844653185565
621,6.774,0.0821717407477809
622,6.782,0.066352662743666
623,6.789,0.0306127057658277
624,6.797,0.0623338026024872
625,6.804,0.0595816751136874
626,6.812,0.0408747482651606
627,6.819,0.0531876912492977
628,6.827,0.0363205427768454
629,6.834,0.0337644572461519
630,6.842,0.0358304378815796
631,6.849,0.0312008316401466
632,6.857,0.0475929553679568
633,6.865,0.118839126988968
634,6.872,0.153500853197222
635,6.880,0.222040137781304
636,6.887,0.379770973228435
637,6.895,1.09862667330294
638,6.902,7.39471773991973
639,6.910,9.0327463208768
640,6.917,2.29382663119916
641,6.925,0.913857127787764
642,6.932,0.61845959729815
643,6.940,0.462455439097417
644,6.947,0.352656862407273
645,6.955,0.280837645062566
646,6.963,0.24646244171616
647,6.970,0.215231449774767
648,6.978,0.224113658492044
649,6.985,0.431752252427848
650,6.993,1.6563509639647
651,7.000,1.67877514794193
652,7.008,0.68309312287073
653,7.015,0.363476870479678
654,7.023,0.326568201828513
655,7.030,0.295435230866173
656,7.038,0.256912986098288
657,7.045,0.20029456058213
658,7.053,0.198967507327257
659,7.060,0.199578253427511
660,7.068,0.167857156590851
661,7.076,0.145312331408629
662,7.083,0.137508353460936
663,7.091,0.125775996275806
664,7.098,0.142590364221076
665,7.106,0.134703445444954
666,7.113,0.135698735386109
667,7.121,0.106541264155455
668,7.128,0.147046548730338
669,7.136,0.138141719787126
670,7.143,0.122842906979523
671,7.151,0.141112509459967
672,7.158,0.145538533667982
673,7.166,0.162737445454153
674,7.173,0.179695074830346
675,7.181,0.226368141010266
676,7.189,0.719918850693465
677,7.196,1.91693596673982
678,7.204,1.30310597568311
679,7.211,0.446643901168614
680,7.219,0.229399251285602
681,7.226,0.189896796727185
682,7.234,0.186963707430903
683,7.241,0.179152189407898
684,7.249,0.156878806936899
685,7.256,0.125715675673312
686,7.264,0.114925827902154
687,7.271,0.111894717626819
688,7.279,0.128467803162112
689,7.287,0.099838137203282
690,7.294,0.0989559483918037
691,7.302,0.0810256493003903
692,7.309,0.0938060769538578
693,7.317,0.0802641016939005
694,7.324,0.106375382498595
695,7.332,0.0869596885707614
696,7.339,0.11240744274802
697,7.347,0.085806057048059
698,7.354,0.0911368902934876
699,7.362,0.0890709096580598
