#"+EI TIC Scan ACN-BLANK.d "
#Point,X(Minutes),Y(Counts)
0,2.095,0.152158777251121
1,2.102,0.139026259918101
2,2.110,0.122620452800276
3,2.117,0.124909787739949
4,2.125,0.105709548861951
5,2.132,0.113745180097191
6,2.140,0.105001101373457
7,2.148,0.110793315561797
8,2.155,0.106916533471979
9,2.163,0.111403367565778
10,2.170,0.107506906379058
11,2.178,0.100691379151781
12,2.185,0.0885362569649244
13,2.193,0.0997008646076821
14,2.200,0.0833868932754033
15,2.208,0.0764073735739378
16,2.215,0.100980005906353
17,2.223,0.0780013804230507
18,2.230,0.0569578661351736
19,2.238,0.0720648528574245
20,2.246,0.0677092127429762
21,2.253,0.0767943958130229
22,2.261,0.079890573725703
23,2.268,0.0716778306183395
24,2.276,0.0646327139271986
25,2.283,0.0607493721384133
26,2.291,0.0686538093943023
27,2.298,0.0707791518597862
28,2.306,0.0512246892375413
29,2.313,0.0763220974873598
30,2.321,0.0601852380272047
31,2.328,0.047584056310555
32,2.336,0.0644228035602373
33,2.343,0.0615234166165834
34,2.351,0.0653674002115634
35,2.359,0.048574570854654
36,2.366,0.050568719340787
37,2.374,0.065688825460973
38,2.381,0.210435142878771
39,2.389,0.407573775950333
40,2.396,0.230547179913257
41,2.404,0.0902680174923557
42,2.411,0.0557508815251458
43,2.419,0.0626648042369358
44,2.426,0.0560788664735229
45,2.434,0.0349631954970028
46,2.441,0.0581123731534611
47,2.449,0.0597719769922495
48,2.457,0.0587421042543452
49,2.464,0.0406766932977325
50,2.472,0.0508376669984562
51,2.479,0.0533697107999277
52,2.487,0.0581648507452015
53,2.494,0.0606181781590625
54,2.502,0.0589651340192417
55,2.509,0.0700313461774863
56,2.517,0.0576335151288305
57,2.524,0.0405717381142519
58,2.532,0.0470592803931516
59,2.539,0.0556196875457949
60,2.547,0.0535337032741163
61,2.554,0.0383086419704496
62,2.562,0.0536976957483049
63,2.570,0.0426118044931576
64,2.577,0.0506277566314949
65,2.585,0.0418902376067279
66,2.592,0.0445075574947775
67,2.600,0.0483384216918225
68,2.607,0.0488697573081934
69,2.615,0.0367015157234016
70,2.622,0.0324508307924339
71,2.630,0.0462589971191114
72,2.637,0.037685470568533
73,2.645,0.0554556950716063
74,2.652,0.0388990148775285
75,2.660,0.0452947213708826
76,2.667,0.0407488499863755
77,2.675,0.0566430005847316
78,2.683,0.0484105783804654
79,2.690,0.0433136922826847
80,2.698,0.0454193556512659
81,2.705,0.0432349758950742
82,2.713,0.0545963745068582
83,2.720,0.0579155821844349
84,2.728,0.0544455014306047
85,2.735,0.0547603669810468
86,2.743,0.0479973173455102
87,2.750,0.0490534288792846
88,2.758,0.0469871237045087
89,2.765,0.0805137451276196
90,2.773,0.0510738161612878
91,2.781,0.0393450744073214
92,2.788,0.0478530039682243
93,2.796,0.0477742875806138
94,2.803,0.0459441315686694
95,2.811,0.0358553145565886
96,2.818,0.0364456874636675
97,2.826,0.0318145399925823
98,2.833,0.0431431401095286
99,2.841,0.0496110032915257
100,2.848,0.0451963258863695
101,2.856,0.036137381612193
102,2.863,0.0456095869213247
103,2.871,0.0465476238736833
104,2.878,0.0629009533997673
105,2.886,0.0559935903869448
106,2.894,0.0506146372335598
107,2.901,0.0634913263068462
108,2.909,0.0658069000423888
109,2.916,0.0576203957308954
110,2.924,0.0550883519294239
111,2.931,0.283680741550353
112,2.939,5.64040963483337
113,2.946,27.5948299601393
114,2.954,55.6524794809336
115,2.961,80.8863163498791
116,2.969,100
117,2.976,34.3428382059433
118,2.984,0.868989561026257
119,2.992,0.211583090198091
120,2.999,0.150709083779294
121,3.007,0.118192655997185
122,3.014,0.113174486287015
123,3.022,0.103000393188356
124,3.029,0.10200331894529
125,3.037,0.107526585475961
126,3.044,0.0961323883693389
127,3.052,0.0695393687549206
128,3.059,0.0602311559199774
129,3.067,0.0731734419829393
130,3.074,0.0679322425078726
131,3.082,0.0673484292997613
132,3.089,0.0595423875283855
133,3.097,0.0600671634457889
134,3.105,0.0710415398184879
135,3.112,0.073750695492083
136,3.120,0.0790312531609549
137,3.127,0.0872111977734807
138,3.135,0.061011760097115
139,3.142,0.0425396478045147
140,3.150,0.0573776868690964
141,3.157,0.0797659394453197
142,3.165,0.0601327604354643
143,3.172,0.0604607453838414
144,3.180,0.0667318175968123
145,3.187,0.0596014248190933
146,3.195,0.0441664531484653
147,3.203,0.0540191209977145
148,3.210,0.044743706657609
149,3.218,0.0398042533350494
150,3.225,0.0418771182087929
151,3.233,0.0422182225551051
152,3.240,0.0364128889688298
153,3.248,0.0548587624655599
154,3.255,0.0536714569524347
155,3.263,0.0459900494614422
156,3.270,0.039522186279445
157,3.278,0.0301877346486317
158,3.285,0.0432152967981716
159,3.293,0.0417852824232473
160,3.300,0.0443894829133617
161,3.308,0.0508311072994887
162,3.316,0.0514411593034702
163,3.323,0.0348254418186844
164,3.331,0.0328772112253242
165,3.338,0.0378363436447865
166,3.346,0.0183409183132495
167,3.353,0.0292628170942082
168,3.361,0.0187279405523345
169,3.368,0.00856696685161082
170,3.376,0.0258845721259237
171,3.383,0.0282919816470118
172,3.391,0.0268160493793147
173,3.398,0.0192002388779976
174,3.406,0.035533889307179
175,3.414,0.0305485180918465
176,3.421,0.025090848550851
177,3.429,0.0154743298644333
178,3.436,0.0222570585968725
179,3.444,0.0238182669511477
180,3.451,0.020256350411772
181,3.459,0.0447961842493494
182,3.466,0.0254647513920009
183,3.474,0.0493026974400512
184,3.481,0.0492174213534732
185,3.489,0.0858139818933941
186,3.496,0.0425593269014173
187,3.504,0.0290201082324091
188,3.511,0.0316571072173613
189,3.519,0.0202497907128044
190,3.527,0.0336906138972995
191,3.534,0.0342941062023134
192,3.542,0.0232934910337443
193,3.549,0.00932133223287823
194,3.557,0.0278459221172189
195,3.564,0.00826522069910385
196,3.572,0.0173766425650207
197,3.579,0.0447502663565766
198,3.587,0.023326289528582
199,3.594,0.0130538009454101
200,3.602,0.026783250884477
201,3.609,0.0292956155890459
202,3.617,0.024329923470616
203,3.624,0.0170355382187085
204,3.632,0.0346614493444958
205,3.640,0.0139459200049959
206,3.647,0.0230770209678154
207,3.655,0.023254132839939
208,3.662,0.010889100286121
209,3.670,0.0222898570917102
210,3.677,0.00733374344571278
211,3.685,0.0179932542679697
212,3.692,0.0172585679836049
213,3.700,0.0204662607787334
214,3.707,0.0173504037691505
215,3.715,0.0325492262769471
216,3.722,0.0235689983903811
217,3.730,0.0256615423610272
218,3.738,0.0220340288319761
219,3.745,0.017501276845404
220,3.753,0.0331002409902207
221,3.760,0.0238051475532126
222,3.768,0.0420083121881437
223,3.775,0.020112037034486
224,3.783,0.029997503378573
225,3.790,0.0190231270058739
226,3.798,0.0151135464212185
227,3.805,0.0226899987287303
228,3.813,0.0182556422266714
229,3.820,0.0196331790098554
230,3.828,0.0306272344794571
231,3.835,0.0158482327055833
232,3.843,0.0278656012141216
233,3.851,0.0174619186515988
234,3.858,0.0264880644309376
235,3.866,0.0282526234532066
236,3.873,0.0150873076253483
237,3.881,0.0252286022291694
238,3.888,0.024946535173565
239,3.896,0.0285281308098434
240,3.903,0.0173832022639883
241,3.911,0.0264946241299051
242,3.918,0.0259304900186965
243,3.926,0.0237723490583749
244,3.933,0.0158679118024859
245,3.941,0.0184393137977626
246,3.949,0.0235427595945109
247,3.956,0.0328444127304865
248,3.964,0.0487451230278101
249,3.971,0.0733177553602252
250,3.979,0.0392138804279705
251,3.986,0.024402080159259
252,3.994,0.0221127452195866
253,4.001,0.0234509238089653
254,4.009,0.0247628636024738
255,4.016,0.0290529067272468
256,4.024,0.0213780589352218
257,4.031,0.0264290271402297
258,4.039,0.0334347856375653
259,4.046,0.0300565406692808
260,4.054,0.031001137320607
261,4.062,0.027012840348341
262,4.069,0.0172848067794751
263,4.077,0.020800805426078
264,4.084,0.010128175205886
265,4.092,0.0331658379798961
266,4.099,0.0221586631123594
267,4.107,0.0342547480085082
268,4.114,0.0170683367135462
269,4.122,0.0272555492101401
270,4.129,0.00475578175146849
271,4.137,0.0279443176017321
272,4.144,0.0205646562632465
273,4.152,0.0275835341585172
274,4.160,0.0245070353427397
275,4.167,0.029164421609695
276,4.175,0.031762062400842
277,4.182,0.0118271372384796
278,4.190,0.0198365296778492
279,4.197,0.0175406350392093
280,4.205,0.0135326589700407
281,4.212,0.0150085912377378
282,4.220,0.0299187869909624
283,4.227,0
284,4.235,0.0126405399104549
285,4.242,0.0145822108048475
286,4.250,0.0317489430029069
287,4.257,0.0064613034830296
288,4.265,0.0221652228113269
289,4.273,0.0224472898669313
290,4.280,0.0188132166389126
291,4.288,0.0375739556860848
292,4.295,0.0221586631123594
293,4.303,0.0226244017390549
294,4.310,0.0350353521856458
295,4.318,0.0162221355467332
296,4.325,0.0260223258042421
297,4.333,0.0248284605921493
298,4.340,0.0160843818684148
299,4.348,0.00622515432019806
300,4.355,0.0268685269710551
301,4.363,0.0208860815126561
302,4.370,0.0211353500734227
303,4.378,0.0141361512750546
304,4.386,0.0243364831695836
305,4.393,0.0280427130862452
306,4.401,0.0376133138798901
307,4.408,0.0400076040030432
308,4.416,0.136395820632116
309,4.423,0.105066698363132
310,4.431,0.0473085489539182
311,4.438,0.0220537079288787
312,4.446,0.0274851386740041
313,4.453,0.0172257694887672
314,4.461,0.0145625317079449
315,4.468,0.0356978817813676
316,4.476,0.0195479029232774
317,4.484,0.0153103373902448
318,4.491,0.0345958523548204
319,4.499,0.0235952371862512
320,4.506,0.0231754164523285
321,4.514,0.0274129819853611
322,4.521,0.0270784373380164
323,4.529,0.0275638550616146
324,4.536,0.0205515368653114
325,4.544,0.0186098659709188
326,4.551,0.019882447570622
327,4.559,0.0220471482299112
328,4.566,0.0207680069312403
329,4.574,0.0275507356636795
330,4.581,0.020643372650857
331,4.589,0.0170880158104488
332,4.597,0.0214305365269621
333,4.604,0.0272358701132375
334,4.612,0.0218700363577875
335,4.619,0.0252548410250396
336,4.627,0.0201973131210641
337,4.634,0.0163861280209218
338,4.642,0.0271440343276919
339,4.649,0.0112302046324332
340,4.657,0.016956821831098
341,4.664,0.0189575300161985
342,4.672,0.0347204866352037
343,4.679,0.0088096757134099
344,4.687,0.0101806527976263
345,4.695,0.024789102398344
346,4.702,0.0213714992362543
347,4.710,0.0100822573131132
348,4.717,0.0169371427341954
349,4.725,0.0279180788058619
350,4.732,0.0247431845055712
351,4.740,0.0144050989327239
352,4.747,0.0126602190073575
353,4.755,0.0107644660057376
354,4.762,0.0243364831695836
355,4.770,0.0114073165045568
356,4.777,0.0212534246548385
357,4.785,0.0208467233188508
358,4.792,0.0174815977485014
359,4.800,0.0171404934021892
360,4.808,0.0170486576166436
361,4.815,0.0186361047667889
362,4.823,0.0161171803632525
363,4.830,0.0217847602712094
364,4.838,0.0116893835601612
365,4.845,0.0309945776216395
366,4.853,0.0216010887001182
367,4.860,0.0176324708247549
368,4.868,0.0204662607787334
369,4.875,0.0162024564498306
370,4.883,0.0159007102973236
371,4.890,0.0209975963951043
372,4.898,0.0128766890732864
373,4.906,0.0108103838985104
374,4.913,0.00533303526061225
375,4.921,0.0107382272098675
376,4.928,0.0261731988804955
377,4.936,0.025937049717664
378,4.943,0.0240084982212064
379,4.951,0.0308830627391912
380,4.958,0.00562166201518413
381,4.966,0.019725014795401
382,4.973,0.0218372378629498
383,4.981,0.0202432310138369
384,4.988,0.0179276572782943
385,4.996,0.0150873076253483
386,5.003,0.02378546845631
387,5.011,0.0142083079636976
388,5.019,0.0191149627914195
389,5.026,0.0201645146262264
390,5.034,0.00698607940043302
391,5.041,0.0161696579549929
392,5.049,0.0268029299813796
393,5.056,0.0184261943998276
394,5.064,0.0348385612166195
395,5.071,0.0049722518173974
396,5.079,0.0241528115984924
397,5.086,0.0201185967334536
398,5.094,0.0108300629954131
399,5.101,0.0137884872297748
400,5.109,0.0309093015350614
401,5.117,0.0182884407215092
402,5.124,0.0251367664436238
403,5.132,0.0163139713322788
404,5.139,0.0192199179749002
405,5.147,0.0344777777734046
406,5.154,0.0165501204951103
407,5.162,0.0257664975445079
408,5.169,0.0304238838114632
409,5.177,0.0141558303719572
410,5.184,0.0315390326359455
411,5.192,0.0274195416843287
412,5.199,0.0290529067272468
413,5.207,0.0138737633163529
414,5.214,0.00333888677447926
415,5.222,0.0160909415673823
416,5.230,0.0236739535738618
417,5.237,0.0259436094166315
418,5.245,0.0211484694713578
419,5.252,0.0293021752880134
420,5.260,0.0262715943650087
421,5.267,0.00595620666252881
422,5.275,0.0258845721259237
423,5.282,0.0134801813783003
424,5.290,0.0171536128001243
425,5.297,0.0243758413633888
426,5.305,0.0241331325015897
427,5.312,0.0179014184824241
428,5.320,0.0272752283070427
429,5.327,0.00114138762035244
430,5.335,0.0135392186690082
431,5.343,0.0285609293046811
432,5.350,0.0225194465555742
433,5.358,0.0117418611519015
434,5.365,0.0349566357980353
435,5.373,0.031762062400842
436,5.380,0.0160909415673823
437,5.388,0.0212140664610332
438,5.395,0.0106988690160622
439,5.403,0.0261010421918526
440,5.410,0.0167206726682664
441,5.418,0.0244348786540967
442,5.425,0.0204728204777009
443,5.433,0.018878813628588
444,5.441,0.00356847623834325
445,5.448,0.00935413072771595
446,5.456,0.011892734228155
447,5.463,0.0244545577509993
448,5.471,0.0181769258390609
449,5.478,0.0248087814952466
450,5.486,0.0270062806493735
451,5.493,0.0246382293220905
452,5.501,0.0168715457445199
453,5.508,0.0136704126483591
454,5.516,0.0130997188381829
455,5.523,0.0146084496007177
456,5.531,0.0129226069660592
457,5.538,0.0199218057644273
458,5.546,0.0299122272919949
459,5.554,0.00934101132978086
460,5.561,0.0218569169598524
461,5.569,0.018104769150418
462,5.576,0.0203678652942202
463,5.584,0.0218831557557226
464,5.591,0.0262912734619113
465,5.599,0.0276556908471602
466,5.606,0.0199414848613299
467,5.614,0.0185967465729837
468,5.621,0.0210894321806499
469,5.629,0.0214698947207674
470,5.636,0.0232803716358092
471,5.644,0.0262453555691385
472,5.652,0.028246063754239
473,5.659,0.0243430428685511
474,5.667,0.0231032597636855
475,5.674,0.0156973596293298
476,5.682,0.0226440808359575
477,5.689,0.0179145378803592
478,5.697,0.018878813628588
479,5.704,0.0220668273268138
480,5.712,0.0243824010623564
481,5.719,0.0219421930464305
482,5.727,0.0301352570568914
483,5.734,0.0155989641448166
484,5.742,0.017573433534047
485,5.749,0.0248678187859545
486,5.757,0.0131915546237285
487,5.765,0.0279508773006996
488,5.772,0.0350091133897756
489,5.780,0.0292759364921433
490,5.787,0.0214370962259297
491,5.795,0.0203547458962851
492,5.802,0.0230770209678154
493,5.810,0.0243758413633888
494,5.817,0.00770108658789518
495,5.825,0.0158285536086806
496,5.832,0.0198890072695896
497,5.840,0.0140508751884766
498,5.847,0.0278918400099917
499,5.855,0.01534969558405
500,5.863,0.0214633350217998
501,5.870,0.0191936791790301
502,5.878,0.0170552173156111
503,5.885,0.016195896750863
504,5.893,0.0174553589526312
505,5.900,0.0370622991666165
506,5.908,0.0404471038338685
507,5.915,0.0200923579375834
508,5.923,0.0147921211718089
509,5.930,0.0272949074039453
510,5.938,0.0341957107178003
511,5.945,0.0143723004378861
512,5.953,0.0297088766240011
513,5.960,0.0127979726856759
514,5.968,0.016340210128149
515,5.976,0.0358225160617509
516,5.983,0.0282395040552715
517,5.991,0.027242429812205
518,5.998,0.0158679118024859
519,6.006,0.0260879227939175
520,6.013,0.0202235519169343
521,6.021,0.0369376648862332
522,6.028,0.0336184572086565
523,6.036,0.0309027418360939
524,6.043,0.0241265728026222
525,6.051,0.012896368170189
526,6.058,0.0399616861102704
527,6.066,0.0285412502077785
528,6.073,0.0205449771663439
529,6.081,0.0403093501555501
530,6.089,0.0338874048663258
531,6.096,0.0151463449160562
532,6.104,0.0200202012489404
533,6.111,0.0294596080632345
534,6.119,0.0338283675756179
535,6.126,0.00688768391591988
536,6.134,0.0187410599502696
537,6.141,0.0105020780470359
538,6.149,0.0137491290359696
539,6.156,0.0273080268018804
540,6.164,0.0277606460306409
541,6.171,0.0229655060853671
542,6.179,0.0326738605573304
543,6.187,0.0121092042940839
544,6.194,0.0279246385048294
545,6.202,0.0284034965294601
546,6.209,0.0188394554347828
547,6.217,0.0286986829829995
548,6.224,0.017343844070183
549,6.232,0.0271965119194322
550,6.239,0.023942901231531
551,6.247,0.0267242135937691
552,6.254,0.0281673473666285
553,6.262,0.02762945205129
554,6.269,0.0356585235875623
555,6.277,0.0215486111083779
556,6.284,0.032149084639927
557,6.292,0.0245070353427397
558,6.300,0.0222898570917102
559,6.307,0.018563948078146
560,6.315,0.0178686199875864
561,6.322,0.0333167110561496
562,6.330,0.029308734986981
563,6.337,0.0255565871775465
564,6.345,0.0302992495310799
565,6.352,0.0197381341933361
566,6.360,0.0283116607439145
567,6.367,0.0320638085533489
568,6.375,0.0368851872944928
569,6.382,0.024474236847902
570,6.390,0.0187345002513021
571,6.398,0.0179145378803592
572,6.405,0.0276819296430304
573,6.413,0.0208598427167859
574,6.420,0.0352846207464124
575,6.428,0.0280427130862452
576,6.435,0.0303648465207553
577,6.443,0.0208860815126561
578,6.450,0.0143985392337563
579,6.458,0.0201448355293238
580,6.465,0.0137950469287424
581,6.473,0.00927541434010544
582,6.480,0.0187279405523345
583,6.488,0.0259829676104368
584,6.495,0.0115778686777129
585,6.503,0.0299778242816703
586,6.511,0.0140574348874441
587,6.518,0.0255041095858062
588,6.526,0.0345958523548204
589,6.533,0.0398960891205949
590,6.541,0.0414704168728052
591,6.548,0.0200923579375834
592,6.556,0.0187410599502696
593,6.563,0.0244545577509993
594,6.571,0.034845120915587
595,6.578,0.0273408252967181
596,6.586,0.0295580035477476
597,6.593,0.0408210066750185
598,6.601,0.0329362485160321
599,6.609,0.0231557373554259
600,6.616,0.0275638550616146
601,6.624,0.0317489430029069
602,6.631,0.0278721609130891
603,6.639,0.0317030251101341
604,6.646,0.0225128868566067
605,6.654,0.0348188821197169
606,6.661,0.0227621554173733
607,6.669,0.0223751331782883
608,6.676,0.0228343121060163
609,6.684,0.0418639988108578
610,6.691,0.0296039214405204
611,6.699,0.0380659331086505
612,6.706,0.0168977845403901
613,6.714,0.0423887747282612
614,6.722,0.0319982115636735
615,6.729,0.0318210996915498
616,6.737,0.0448945797338625
617,6.744,0.0231754164523285
618,6.752,0.0345368150641125
619,6.759,0.0410637155368176
620,6.767,0.0293349737828511
621,6.774,0.0232147746461338
622,6.782,0.029767913914709
623,6.789,0.0426708417838655
624,6.797,0.0343334643961187
625,6.804,0.0338480466725205
626,6.812,0.028705242681967
627,6.819,0.0417393645304745
628,6.827,0.0407029320936027
629,6.835,0.0320572488543814
630,6.842,0.0308830627391912
631,6.850,0.0419361554995007
632,6.857,0.0367999112079148
633,6.865,0.0441861322453679
634,6.872,0.0314143983555622
635,6.880,0.0349041582062949
636,6.887,0.0445206768927126
637,6.895,0.0543339865481565
638,6.902,0.0365965605399209
639,6.910,0.0445272365916801
640,6.917,0.0360980234183877
641,6.925,0.0481678695186663
642,6.933,0.0388399775868206
643,6.940,0.0242708861799081
644,6.948,0.0488435185123232
645,6.955,0.0386300672198592
646,6.963,0.0431759386043663
647,6.970,0.0471445564797297
648,6.978,0.0394106713969968
649,6.985,0.0566298811867965
650,6.993,0.0507195924170405
651,7.000,0.0526809424083357
652,7.008,0.0471248773828271
653,7.015,0.0517429054559771
654,7.023,0.0431693789053988
655,7.030,0.0459834897624746
656,7.038,0.0460162882573123
657,7.046,0.0584075596070006
658,7.053,0.0633470129295602
659,7.061,0.0418705585098253
660,7.068,0.0684045408335357
661,7.076,0.0600671634457889
662,7.083,0.038288962873547
663,7.091,0.0508245476005212
664,7.098,0.0473347877497884
665,7.106,0.0584534774997734
666,7.113,0.0592078428810408
667,7.121,0.0557640009230808
668,7.128,0.0493289362359214
669,7.136,0.0515198756910807
670,7.144,0.0562887768404843
671,7.151,0.0571940152980052
672,7.159,0.0630583861749884
673,7.166,0.0640554604180549
674,7.174,0.0733439941560954
675,7.181,0.0628812743028647
676,7.189,0.0664759893370781
677,7.196,0.0786639100187725
678,7.204,0.0710480995174554
679,7.211,0.0773257314293938
680,7.219,0.0828686770569674
681,7.226,0.0572858510835508
682,7.234,0.0702281371465126
683,7.241,0.0587617833512479
684,7.249,0.0759285155493072
685,7.257,0.0849087434358732
686,7.264,0.0933576357060683
687,7.272,0.0815829760593291
688,7.279,0.10317750506048
689,7.287,0.092544233034093
690,7.294,0.0991039320016357
691,7.302,0.0860960489489985
692,7.309,0.0796347454659689
693,7.317,0.0799824095112486
694,7.324,0.083491848458884
