#"+EI TIC Scan ACN-SLA.d "
#Point,X(Minutes),Y(Counts)
0,2.095,0.129475828672159
1,2.102,0.112570454723676
2,2.110,0.106722726086214
3,2.117,0.0936039410602664
4,2.125,0.076711994732076
5,2.132,0.083828633487196
6,2.140,0.084560438793147
7,2.147,0.0675879267432005
8,2.155,0.071374515665736
9,2.162,0.0735632177734428
10,2.170,0.156915170740249
11,2.178,0.233157198762081
12,2.185,0.119767659200552
13,2.193,0.0912406798887549
14,2.200,0.0859300560630002
15,2.208,0.072421870048565
16,2.215,0.0879441991069021
17,2.223,0.0781487501033927
18,2.230,0.0562751566466183
19,2.238,0.0661780266124692
20,2.245,0.0618744743086655
21,2.253,0.0700854641176388
22,2.260,0.0604578603677879
23,2.268,0.059450788845837
24,2.276,0.0494539255379373
25,2.283,0.0420955896175492
26,2.291,0.0443312883962802
27,2.298,0.0266202572302364
28,2.306,0.0571143829149108
29,2.313,0.0537910468924727
30,2.321,0.0352340756479901
31,2.328,0.0463185761995967
32,2.336,0.0409676695129641
33,2.343,0.0438680354961828
34,2.351,0.0378994582760869
35,2.358,0.0473793582027184
36,2.366,0.0597126274415442
37,2.373,0.0480708806477914
38,2.381,0.0779137667482708
39,2.389,0.256480975210465
40,2.396,0.331165399278346
41,2.404,0.156216934485029
42,2.411,0.0557111965943258
43,2.419,0.0429348158858416
44,2.426,0.0407729690187203
45,2.434,0.0239078779311152
46,2.441,0.0294669127322844
47,2.449,0.0349990922928682
48,2.456,0.0402425780171594
49,2.464,0.038335855935599
50,2.471,0.0295944751250649
51,2.479,0.0209672290870185
52,2.486,0.174418073791756
53,2.494,2.34446921691193
54,2.502,2.81310659274672
55,2.509,1.72206544729552
56,2.517,1.22876153298307
57,2.524,0.881879104152143
58,2.532,0.631165291857384
59,2.539,0.459956419315578
60,2.547,0.373865231809066
61,2.554,0.330896846872492
62,2.562,0.309687920620206
63,2.569,0.239918005579445
64,2.577,0.225597448537302
65,2.584,0.201400876769895
66,2.592,0.182098672599168
67,2.600,0.178553780841901
68,2.607,0.161024022549808
69,2.615,0.123983931972453
70,2.622,0.128723881935769
71,2.630,0.22017268993906
72,2.637,0.60831819592939
73,2.645,0.487812017612741
74,2.652,1.69947347615308
75,2.660,2.65616456676589
76,2.667,0.935388171018469
77,2.675,0.549928189086675
78,2.682,0.965298195220412
79,2.690,1.35886845980898
80,2.697,0.50925592722015
81,2.705,0.278649976313678
82,2.713,0.259106074977683
83,2.720,0.222146550122084
84,2.728,0.220199545179645
85,2.735,0.199004046547651
86,2.743,0.17105445490844
87,2.750,0.160795753004833
88,2.758,0.144185786702789
89,2.765,0.151040586862201
90,2.773,0.135021435853035
91,2.780,0.122533748980844
92,2.788,0.114222052019675
93,2.795,0.118572600994503
94,2.803,0.118572600994503
95,2.811,0.0886625767925605
96,2.818,0.0996799392427037
97,2.826,0.0940403387197785
98,2.833,0.0934830924776323
99,2.841,0.0991764034817282
100,2.848,0.0887028596534385
101,2.856,0.0808879846430992
102,2.863,0.0875816533589998
103,2.871,0.102647443327386
104,2.878,0.0923216033223155
105,2.886,0.0811968199098309
106,2.893,0.0908848479509989
107,2.901,0.086024049405049
108,2.908,0.109226977270799
109,2.916,0.0864805884950001
110,2.924,0.081754066151977
111,2.931,0.08928696113617
112,2.939,1.40186369998614
113,2.946,12.1338623636694
114,2.954,32.7585797122622
115,2.961,56.5688388438497
116,2.969,87.3844016169003
117,2.976,100
118,2.984,15.4041458583311
119,2.991,0.379330273268186
120,2.999,0.169248439979074
121,3.006,0.104225188711776
122,3.014,0.107561952354506
123,3.022,0.112113915633725
124,3.029,0.0976725100089482
125,3.037,0.102882426682508
126,3.044,0.107978208583579
127,3.052,0.0824120195463183
128,3.059,0.0753625188926618
129,3.067,0.0693603726218342
130,3.074,0.0838152058669033
131,3.082,0.0673126605272006
132,3.089,0.0721130347818334
133,3.097,0.0394704898503304
134,3.104,0.067755771996859
135,3.112,0.0727508467457357
136,3.119,0.0820024771273916
137,3.127,0.0661511713718839
138,3.135,0.0816130761389039
139,3.142,0.0412899323999884
140,3.150,0.0483730021043767
141,3.157,0.0647412712411525
142,3.165,0.084896129300464
143,3.172,0.0710388251584191
144,3.180,0.0712670947033946
145,3.187,0.0710388251584191
146,3.195,0.0371005148686725
147,3.202,0.0530726692068144
148,3.210,0.0499104646278884
149,3.217,0.038335855935599
150,3.225,0.0378121787441845
151,3.232,0.0493465045755959
152,3.240,0.0566309885843743
153,3.248,0.0291647912756991
154,3.255,0.0563154395074964
155,3.263,0.0679974691621272
156,3.270,0.0428878192148172
157,3.278,0.027284924434724
158,3.285,0.0581684511078861
159,3.293,0.0387252569240867
160,3.300,0.0325284101590153
161,3.308,0.0434383516468171
162,3.315,0.0547779769839846
163,3.323,0.0460433099835968
164,3.330,0.0341061555434051
165,3.338,0.0286948245654554
166,3.346,0.0120244339720942
167,3.353,0.0313333519529668
168,3.361,0.0176908897356048
169,3.368,0.00394100655590133
170,3.376,0.0366909724497458
171,3.383,0.026573260559212
172,3.391,0.0297891756193087
173,3.398,0.0300845832657476
174,3.406,0.0177647416472145
175,3.413,0.00439754564585242
176,3.421,0.0243912722616517
177,3.428,0.0170799330122879
178,3.436,0.0268619543955047
179,3.443,0.0229679445106277
180,3.451,0.0306418295078938
181,3.459,0.0251432189980417
182,3.466,0.0300040175439916
183,3.474,0.024713535148676
184,3.481,0.0332870707055516
185,3.489,0.0840837582727569
186,3.496,0.0586182763876908
187,3.504,0.0414644914637932
188,3.511,0.0257407481010659
189,3.519,0.0139445836739473
190,3.526,0.00876152224097315
191,3.534,0.0198997332737505
192,3.541,0.0238944503108226
193,3.549,0.0213364886450672
194,3.557,0.0186509645865313
195,3.564,0.00765374356682712
196,3.572,0.0175230444819463
197,3.579,0.0112389181849725
198,3.587,0.008956222735217
199,3.594,0.0185099745734582
200,3.602,0.0261637181402853
201,3.609,0.0253110642517002
202,3.617,0.0118565887184357
203,3.624,0.027976446879797
204,3.632,0.0241160060456518
205,3.639,0.0212156400624331
206,3.647,0.0174357649500439
207,3.654,0.0144414056247764
208,3.662,0.0242771374891639
209,3.670,0.0172343506456537
210,3.677,0.0200205818563846
211,3.685,0.02004743709697
212,3.692,0.00563288671277891
213,3.700,0
214,3.707,0.0223905568380425
215,3.715,0.0184495502821412
216,3.722,0.0258280276329684
217,3.730,0.000234983355121885
218,3.737,0.00997672187746061
219,3.745,0.0230887930932618
220,3.752,0.0241092922355054
221,3.760,0.0109367967283872
222,3.768,0.0368185348425262
223,3.775,0.0278086016261385
224,3.783,0.0246061141863346
225,3.790,0.00825798647999768
226,3.798,0.00400143084721839
227,3.805,0.0124876868721916
228,3.813,0.0207188181116039
229,3.820,0.0159452990975565
230,3.828,0.00223569877873108
231,3.835,0.00790215454224168
232,3.843,0.00211485019609697
233,3.850,0.000557246242146185
234,3.858,0.017576754963117
235,3.865,0.0303195666208695
236,3.873,0.0177781692675072
237,3.881,0.0198527366027261
238,3.888,0.0190269379547264
239,3.896,0.00887565701346092
240,3.903,0.0203159895028236
241,3.911,0.0366842586395995
242,3.918,0.0224174120786278
243,3.926,0.0184898331430192
244,3.933,0.0249955151748222
245,3.941,0.0233976283599934
246,3.948,0.0302457147092598
247,3.956,0.0163816967570686
248,3.963,0.0366775448294531
249,3.971,0.127434830387672
250,3.979,0.119942218264357
251,3.986,0.0714752228179311
252,3.994,0.0479634596854499
253,4.001,0.0564832847611549
254,4.009,0.244698238403639
255,4.016,0.236869935773007
256,4.024,0.0894682340101212
257,4.031,0.0774303724177343
258,4.039,0.0734625106212477
259,4.046,0.0788134173078803
260,4.054,0.0596790583908125
261,4.061,0.032642544931503
262,4.069,0.0341732936448685
263,4.076,0.0707702727525655
264,4.084,0.0591822364399834
265,4.092,0.046264865718426
266,4.099,0.0440023116991096
267,4.107,0.0287015383756017
268,4.114,0.0493129355248642
269,4.122,0.0437606145338414
270,4.129,0.0595783512386174
271,4.137,0.075308808411491
272,4.144,0.0805455803256359
273,4.152,0.0320852986893568
274,4.159,0.0514882100122782
275,4.167,0.039423493179306
276,4.174,0.0402761470678911
277,4.182,0.0231693588150179
278,4.189,0.0199668713752139
279,4.197,0.0276474701826264
280,4.205,0.0266202572302364
281,4.212,0.0142399913203862
282,4.220,0.0296347579859429
283,4.227,0.0234446250310178
284,4.235,0.0120512892126795
285,4.242,0.0334146330983321
286,4.250,0.0124742592518989
287,4.257,0.0146763889798983
288,4.265,0.0216050410509208
289,4.272,0.00678094824780297
290,4.280,0.0121721377953137
291,4.287,0.00918449228019254
292,4.295,0.0112456319951188
293,4.303,0.0259623038358951
294,4.310,0.0105541095500458
295,4.318,0.00656610632312011
296,4.325,0.00396114798634035
297,4.333,0.0179661559516047
298,4.340,0.0288223869582358
299,4.348,0.0325888344503323
300,4.355,0.0286746831350163
301,4.363,0.026177145760578
302,4.370,0.0154551909568737
303,4.378,0.0196043256273116
304,4.385,0.0207926700232137
305,4.393,0.0367715381715019
306,4.400,0.034381421759405
307,4.408,0.0345962636840878
308,4.416,0.0905088745828038
309,4.423,0.18699304019585
310,4.431,0.0785515787121731
311,4.438,0.0120042925416552
312,4.446,0.0361538676380386
313,4.453,0.00788201311180266
314,4.461,0.0193089179808726
315,4.468,0.026177145760578
316,4.476,0.0267478196230169
317,4.483,0.0252372123400905
318,4.491,0.0187315303082874
319,4.498,0.0145353989668252
320,4.506,0.0293662055800893
321,4.514,0.0645667121773477
322,4.521,0.072717277695004
323,4.529,0.0738183425590037
324,4.536,0.0567249819264231
325,4.544,0.0478493249129622
326,4.551,0.0402895746881838
327,4.559,0.0333072121359906
328,4.566,0.055912610898716
329,4.574,0.0431362301902318
330,4.581,0.0415719124261347
331,4.589,0.0339450240998929
332,4.596,0.01573717098302
333,4.604,0.0352810723190145
334,4.611,0.0340323036317953
335,4.619,0.0368386762729653
336,4.627,0.0435256311787195
337,4.634,0.0194566218040921
338,4.642,0.0149852242466299
339,4.649,0.0253110642517002
340,4.657,0.016153427212093
341,4.664,0.0173619130384341
342,4.672,0.0282248578552116
343,4.679,0.018684533637263
344,4.687,0.00755975022477836
345,4.694,0.0120512892126795
346,4.702,0.0354824866234047
347,4.709,0.0284531274001871
348,4.717,0.0311856481297473
349,4.725,0.0500783098815469
350,4.732,0.0224106982684815
351,4.740,0.0343881355695513
352,4.747,0.0508235428077906
353,4.755,0.0774370862278807
354,4.762,0.0367446829309165
355,4.770,0.0424849906060368
356,4.777,0.0273386349158948
357,4.785,0.0220347249002865
358,4.792,0.0329312387677956
359,4.800,0.0217728863045792
360,4.807,0.0200608647172627
361,4.815,0.0260227281272122
362,4.822,0.0262912805330658
363,4.830,0.0114201910589236
364,4.838,0.0292050741365772
365,4.845,0.0426729772901344
366,4.853,0.401566412472863
367,4.860,1.43746032138204
368,4.868,0.857313272826686
369,4.875,0.306122887432499
370,4.883,0.170752333451854
371,4.890,0.143480836637423
372,4.898,0.138123216140644
373,4.905,0.120909006925429
374,4.913,0.0864268780138294
375,4.920,0.0992435415831916
376,4.928,0.105003990688751
377,4.935,0.0713812294758824
378,4.943,0.0743353059402718
379,4.951,0.0731402477342234
380,4.958,0.0643585840628112
381,4.966,0.0686017120752978
382,4.973,0.0594037921748126
383,4.981,0.0664935756893472
384,4.988,0.0531666625488631
385,4.996,0.0537507640315947
386,5.003,0.0509443913904247
387,5.011,0.126844015094794
388,5.018,1.07895628718779
389,5.026,2.24213732266142
390,5.033,0.817775644874892
391,5.041,0.348822719963219
392,5.049,0.234372398398568
393,5.056,0.204818206134381
394,5.064,0.186805053511752
395,5.071,0.1395801129424
396,5.079,0.119915363023771
397,5.086,0.117189556104357
398,5.094,0.122318907056161
399,5.101,0.108723441509823
400,5.109,0.120566602607966
401,5.116,0.0963498894101193
402,5.124,0.0825530095593914
403,5.131,0.0931138329195836
404,5.139,0.0804583007937335
405,5.146,0.170604629628635
406,5.154,0.716732802172482
407,5.162,0.795230670403484
408,5.169,0.295770192186844
409,5.177,0.173102167003073
410,5.184,0.15208794124503
411,5.192,0.141110861655765
412,5.199,0.177808547915657
413,5.207,0.139821810107668
414,5.214,0.143944089537521
415,5.222,0.115578241669236
416,5.229,0.120298050202113
417,5.237,0.125763091661233
418,5.244,0.668097961472398
419,5.252,2.88828112495529
420,5.260,1.91698749727419
421,5.267,0.666117387479228
422,5.275,0.41373183645803
423,5.282,0.305458220228012
424,5.290,0.279932314051629
425,5.297,0.246578105244614
426,5.305,0.255534327979831
427,5.312,0.2185412340735
428,5.320,0.199883555676822
429,5.327,0.170322649602489
430,5.335,0.171269296833123
431,5.342,0.143406984725813
432,5.350,0.135229563967572
433,5.357,0.134162068154304
434,5.365,0.139465978169912
435,5.373,0.132342625604646
436,5.380,0.113322401460066
437,5.388,0.113987068664553
438,5.395,0.0957926431679731
439,5.403,0.11815634476543
440,5.410,0.0995993735209476
441,5.418,0.0775579348105148
442,5.425,0.0834056634479766
443,5.433,0.0884880177287556
444,5.440,0.0764568699465151
445,5.448,0.0868767032936341
446,5.455,0.0925834419180228
447,5.463,0.0762017451609542
448,5.471,0.0733013791777355
449,5.478,0.078806703497734
450,5.486,0.0786791411049535
451,5.493,0.0678833343896395
452,5.501,0.0602900151141294
453,5.508,0.0798204888298312
454,5.516,0.0935703720095347
455,5.523,0.0637207720989089
456,5.531,0.0693536588116878
457,5.538,0.0695215040653463
458,5.546,0.0733080929878819
459,5.553,0.0640698902265186
460,5.561,0.0624652896015434
461,5.568,0.0643115873917868
462,5.576,0.47790914764689
463,5.584,2.4451159448157
464,5.591,2.52450003598602
465,5.599,1.04376249440068
466,5.606,0.628426057317677
467,5.614,1.43650696034126
468,5.621,12.2855609039259
469,5.629,24.8813736885243
470,5.636,7.26555106416576
471,5.644,1.78328196820984
472,5.651,1.15893790746114
473,5.659,0.845778946995275
474,5.666,0.703600589526241
475,5.674,0.581865783952812
476,5.681,0.529189229544632
477,5.689,0.431127318547196
478,5.697,0.402553342564375
479,5.704,0.354321330473071
480,5.712,0.332595440839516
481,5.719,0.307217238486353
482,5.727,0.275910741773971
483,5.734,0.278871532048507
484,5.742,0.250351266546857
485,5.749,0.244214844073102
486,5.757,0.206006550530284
487,5.764,0.189631567583361
488,5.772,0.201528439162675
489,5.779,0.189765843786288
490,5.787,0.178748481336145
491,5.795,0.171517707808537
492,5.802,0.161749114045613
493,5.810,0.162662192225515
494,5.817,0.129368407709817
495,5.825,0.126239772181623
496,5.832,0.13554511304445
497,5.840,0.156552624992346
498,5.847,0.116827010356455
499,5.855,0.111925928949627
500,5.862,0.115665521201138
501,5.870,0.109804364943384
502,5.877,0.126917867006403
503,5.885,0.103976777736361
504,5.892,0.127179705602111
505,5.900,0.102607160466508
506,5.908,0.10850859958514
507,5.915,0.101230829386508
508,5.923,0.0982498976815334
509,5.930,0.102654157137532
510,5.938,0.111852077038017
511,5.945,0.0932749643630957
512,5.953,0.101989489933045
513,5.960,0.109347825853433
514,5.968,0.0878166367141217
515,5.975,0.0920664785367546
516,5.983,0.0833788082073912
517,5.990,0.0848021359584152
518,5.998,0.0830834005609523
519,6.006,0.0945170192401686
520,6.013,0.0846812873757811
521,6.021,0.0758861960840762
522,6.028,0.074180888306906
523,6.036,0.0852452474280736
524,6.043,0.0754699398550032
525,6.051,0.0592225193008614
526,6.058,0.0706695656003704
527,6.066,0.0693805140522732
528,6.073,0.0770409714292467
529,6.081,0.0729656886704185
530,6.088,0.0518440419500342
531,6.096,0.0744628683330523
532,6.103,0.0763494489841737
533,6.111,0.0672723776663226
534,6.119,0.0712469532729556
535,6.126,0.0506892666048638
536,6.134,0.0806999979590017
537,6.141,0.0723547319471016
538,6.149,0.0701391745988096
539,6.156,0.0694342245334439
540,6.164,0.0687359882782246
541,6.171,0.0653186589137378
542,6.179,0.0522804396095463
543,6.186,0.0618207638274948
544,6.194,0.078450871559978
545,6.201,0.071334232804858
546,6.209,0.0665472861705179
547,6.217,0.0653186589137378
548,6.224,0.065936329447201
549,6.232,0.0631433844263237
550,6.239,0.0728515538979308
551,6.247,0.0732745239371501
552,6.254,0.0609009718374463
553,6.262,0.0682660215679808
554,6.269,0.0683734425303223
555,6.277,0.065996753738518
556,6.284,0.110314614514506
557,6.292,0.102466170453435
558,6.299,0.0746441412070034
559,6.307,0.0768999814161735
560,6.314,0.0683935839607613
561,6.322,0.0604444327474952
562,6.330,0.071273808513541
563,6.337,0.0627942662987141
564,6.345,0.0591688088196907
565,6.352,0.0497291917539373
566,6.360,0.0672656638561762
567,6.367,0.061290372825934
568,6.375,0.0541267373997897
569,6.382,0.0448683932079874
570,6.390,0.0578864710817398
571,6.397,0.0564832847611549
572,6.405,0.0480708806477914
573,6.412,0.0665137171197862
574,6.420,0.0760741827681738
575,6.428,0.0794243740311972
576,6.435,0.0631769534770554
577,6.443,0.0739123359010524
578,6.450,0.0626667039059336
579,6.458,0.0452980770573531
580,6.465,0.0672320948054445
581,6.473,0.0500850236916932
582,6.480,0.0640698902265186
583,6.488,0.0606257056214464
584,6.495,0.0668896904879812
585,6.503,0.0592896574023248
586,6.510,0.0741070363952963
587,6.518,0.0760473275275884
588,6.525,0.0593769369342272
589,6.533,0.0737310630271012
590,6.541,0.0847752807178298
591,6.548,0.0786589996745145
592,6.556,0.0777526353047586
593,6.563,0.0668225523865178
594,6.571,0.0793840911703192
595,6.578,0.0837144987147082
596,6.586,0.0954770940910951
597,6.593,0.0762487418319786
598,6.601,0.0663592994864204
599,6.608,0.103506811026117
600,6.616,0.124850013481331
601,6.623,0.11221462278592
602,6.631,0.0923148895121692
603,6.638,0.0720190414397846
604,6.646,0.0650299650774451
605,6.654,0.0872795319024145
606,6.661,0.0736303558749061
607,6.669,0.0905155883929502
608,6.676,0.0991226930005575
609,6.684,0.0883134586649508
610,6.691,0.0972226847291434
611,6.699,0.100774290296557
612,6.706,0.089978483581243
613,6.714,0.0918516366120718
614,6.721,0.0704950065365656
615,6.729,0.0782897401164658
616,6.736,0.0797869197790995
617,6.744,0.0709918284873947
618,6.752,0.0737646320778329
619,6.759,0.0769268366567589
620,6.767,0.0895487997318773
621,6.774,0.0703674441437851
622,6.782,0.100351320257338
623,6.789,0.100378175497923
624,6.797,0.0909251308118769
625,6.804,0.0745904307258327
626,6.812,0.0617670533463241
627,6.819,0.0593299402632028
628,6.827,0.0713946570961751
629,6.834,0.0726904224544186
630,6.842,0.0891996816042676
631,6.849,0.0629218286914945
632,6.857,0.085688358897732
633,6.865,0.0761681761102225
634,6.872,0.0847349978569518
635,6.880,0.0690246821145172
636,6.887,0.0950809792924611
637,6.895,0.100747435055972
638,6.902,0.113617809106505
639,6.910,0.0803508798313921
640,6.917,0.0947989992663148
641,6.925,0.0899851973913894
642,6.932,0.0933018196036811
643,6.940,0.0850438331236834
644,6.947,0.0926304385890472
645,6.955,0.0761346070594908
646,6.963,0.103345679582605
647,6.970,0.102043200414215
648,6.978,0.07991448217188
649,6.985,0.0934428096167542
650,6.993,0.105030845929336
651,7.000,0.136176211198206
652,7.008,0.138781169534985
653,7.015,0.115685662631577
654,7.023,0.103600804368166
655,7.030,0.112738299977334
656,7.038,0.141829239341424
657,7.045,0.112241478026505
658,7.053,0.126414331245428
659,7.060,0.124084639124648
660,7.068,0.150375919657714
661,7.076,0.141802384100838
662,7.083,0.129992792053427
663,7.091,0.109354539663579
664,7.098,0.128670171454598
665,7.106,0.139479405790205
666,7.113,0.123648241465136
667,7.121,0.154612333860054
668,7.128,0.151597833104348
669,7.136,0.143695678562106
670,7.143,0.132779023264158
671,7.151,0.132617891820646
672,7.158,0.118552459564064
673,7.166,0.151020445431762
674,7.174,0.144810171046398
675,7.181,0.158069946085419
676,7.189,0.157586551754883
677,7.196,0.143668823321521
678,7.204,0.131765237932061
679,7.211,0.123574389553526
680,7.219,0.114175055348651
681,7.226,0.116263050304162
682,7.234,0.131174422639183
683,7.241,0.113067276674505
684,7.249,0.157344854589614
685,7.256,0.15326285802064
686,7.264,0.168919463281904
687,7.271,0.146065653543764
688,7.279,0.123896652440551
689,7.287,0.108777151990994
690,7.294,0.122956719020063
691,7.302,0.124601602505916
692,7.309,0.156754039296736
693,7.317,0.2088196369816
694,7.324,0.263161216306072
695,7.332,0.268498695372412
696,7.339,0.227470601568131
697,7.347,0.200769778616139
698,7.354,0.202300527329504
699,7.362,0.236997498165787
700,7.369,0.214183971288525
701,7.377,0.166865037377124
702,7.384,0.186818481132045
