#"+EI TIC Scan EA-Blank2.d "
#Point,X(Minutes),Y(Counts)
0,2.095,0.121440128297833
1,2.102,0.104879527723998
2,2.110,0.117634568134984
3,2.117,0.097247027846823
4,2.125,0.0883616862531152
5,2.132,0.094330857025404
6,2.140,0.094852518081435
7,2.147,0.0759615463966412
8,2.155,0.0836752885694271
9,2.163,0.0764960351835582
10,2.170,0.0785698516767961
11,2.178,0.0600508841876966
12,2.185,0.0758717522804392
13,2.193,0.0830980406795567
14,2.200,0.0751020884272787
15,2.208,0.0679570423237725
16,2.215,0.0763036192202681
17,2.223,0.0615046936881107
18,2.230,0.0691243658343992
19,2.238,0.0648356278081774
20,2.245,0.0594992917595982
21,2.253,0.063685407938732
22,2.261,0.0464021785249846
23,2.268,0.0581780354783395
24,2.276,0.0534061195887447
25,2.283,0.0515118913279109
26,2.291,0.055193450092195
27,2.298,0.0520164487427605
28,2.306,0.0538422624388689
29,2.313,0.0473685342517305
30,2.321,0.0474626042782278
31,2.328,0.0571261615456868
32,2.336,0.0392485806008877
33,2.343,0.0493097975258129
34,2.351,0.0434346967800215
35,2.358,0.0362169602014946
36,2.366,0.0467955622721554
37,2.374,0.0411043256690634
38,2.381,0.0401251422114315
39,2.389,0.0541244725183611
40,2.396,0.159795043646996
41,2.404,0.397668209286824
42,2.411,0.163450946949508
43,2.419,0.0538422624388689
44,2.426,0.0545606153684853
45,2.434,0.0432037976240733
46,2.441,0.0484118563637924
47,2.449,0.0607735130276083
48,2.456,0.0527476294032629
49,2.464,0.0439734614772338
50,2.472,0.0566301559514279
51,2.479,0.0385558831330433
52,2.487,0.0464834208205959
53,2.494,0.0456068592100521
54,2.502,0.0497331126450512
55,2.509,0.0426821365680424
56,2.517,0.0428104138769024
57,2.524,0.0485102023005851
58,2.532,0.0549539991156562
59,2.539,0.0584003828136969
60,2.547,0.0365504812045308
61,2.554,0.0508063661291805
62,2.562,0.0497929753891859
63,2.569,0.0337155526787231
64,2.577,0.0419167486251773
65,2.585,0.0453802359643993
66,2.592,0.0446661589450782
67,2.600,0.0423699951164829
68,2.607,0.0437169068595136
69,2.615,0.0355798495674895
70,2.622,0.040971772449908
71,2.630,0.0476165370488599
72,2.637,0.0590973561918367
73,2.645,0.040296178623245
74,2.652,0.0544024066875579
75,2.660,0.044815815805415
76,2.667,0.0362725470353339
77,2.675,0.0462610734852385
78,2.683,0.050088013199564
79,2.690,0.043212349444664
80,2.698,0.0407494251145506
81,2.705,0.0322745709091949
82,2.713,0.0374270428150746
83,2.720,0.0438323564374877
84,2.728,0.0592812203345361
85,2.735,0.0663749555144983
86,2.743,0.0540945411462937
87,2.750,0.050545535601165
88,2.758,0.0518838955236051
89,2.765,0.0446618830347829
90,2.773,0.0545392358170087
91,2.780,0.0553986937863712
92,2.788,0.0445720889185808
93,2.796,0.0427035161195191
94,2.803,0.0427847584151304
95,2.811,0.0459916911366323
96,2.818,0.0434518004212028
97,2.826,0.0470008059663316
98,2.833,0.0411086015793588
99,2.841,0.0572715424957283
100,2.848,0.0484717191079271
101,2.856,0.0353361226806554
102,2.863,0.040321834085017
103,2.871,0.0492926938846316
104,2.878,0.0410743942969961
105,2.886,0.0729983405619735
106,2.894,0.0556595243143867
107,2.901,0.0624411180427893
108,2.909,0.0508705047836105
109,2.916,0.0473343269693678
110,2.924,0.0513109235440301
111,2.931,0.0362212361117899
112,2.939,0.0520976910383719
113,2.946,0.0549197918332935
114,2.954,0.225951927736432
115,2.961,6.14305066444867
116,2.969,38.2315296816803
117,2.976,88.097892519265
118,2.984,100
119,2.991,1.85801985245287
120,2.999,0.109984964616629
121,3.007,0.0876134019514314
122,3.014,0.0874081582572553
123,3.022,0.0763249987717448
124,3.029,0.0554542806202105
125,3.037,0.0787109567165422
126,3.044,0.0905039173110784
127,3.052,0.065990123587918
128,3.059,0.0699667201625804
129,3.067,0.067657728603099
130,3.074,0.0621161488603438
131,3.082,0.0586996965343704
132,3.089,0.0606495116290436
133,3.097,0.0551592428098324
134,3.104,0.0450766463334304
135,3.112,0.0445934684700575
136,3.120,0.0648099723464054
137,3.127,0.0946772057593262
138,3.135,0.0581010690930234
139,3.142,0.0473599824311398
140,3.150,0.0442642233773166
141,3.157,0.050049530006906
142,3.165,0.060846203502629
143,3.172,0.0469537709530829
144,3.180,0.0515204431485016
145,3.187,0.0463807989735079
146,3.195,0.0456881015056635
147,3.202,0.0392443046905924
148,3.210,0.044854298998073
149,3.218,0.0390305091758256
150,3.225,0.037585251496002
151,3.233,0.0392443046905924
152,3.240,0.0396077570656959
153,3.248,0.0468340454648135
154,3.255,0.0604057847422094
155,3.263,0.0543981307772626
156,3.270,0.0514520285837762
157,3.278,0.0383292598873905
158,3.285,0.044255671556726
159,3.293,0.0285032180287087
160,3.300,0.0356226086704429
161,3.308,0.0535600523593768
162,3.315,0.0609958603629658
163,3.323,0.0369951758752457
164,3.331,0.0295550919613613
165,3.338,0.0389535427905095
166,3.346,0.0313124910927444
167,3.353,0.0213453441943165
168,3.361,0.0255699435661083
169,3.368,0.0277976928299783
170,3.376,0.0301665471335944
171,3.383,0.0311713860529983
172,3.391,0.0360715792514532
173,3.398,0.0313766297471744
174,3.406,0.0280328678962218
175,3.413,0.0269040275782531
176,3.421,0.022649496834394
177,3.429,0.0218285220576895
178,3.436,0.0248216592644246
179,3.444,0.0315647698001692
180,3.451,0.0354002613350854
181,3.459,0.0283621129889626
182,3.466,0.0371234531841058
183,3.474,0.024496690081979
184,3.481,0.0452391309246532
185,3.489,0.0832990084634375
186,3.496,0.0520506560251232
187,3.504,0.0303846185586565
188,3.511,0.016513565560587
189,3.519,0.0236586116640932
190,3.526,0.0214565178619953
191,3.534,0.0118442715180803
192,3.542,0.028417699822802
193,3.549,0.018831108940659
194,3.557,0.0154103807043904
195,3.564,0.0265149197413776
196,3.572,0.029041982725921
197,3.579,0.0313167670030397
198,3.587,0.0261856746486367
199,3.594,0.0155386580132504
200,3.602,0.0267030597943723
201,3.609,0.0108009494060183
202,3.617,0.0145038877217792
203,3.624,0.0121136538666864
204,3.632,0.0206996817397208
205,3.640,0.0256212544896524
206,3.647,0.0274941031990095
207,3.655,0.0240220640391968
208,3.662,0.00899223935109127
209,3.670,0.0173644717093589
210,3.677,0.0286443230684548
211,3.685,0.0259034645691445
212,3.692,0.0109719858178318
213,3.700,0.0102322533367387
214,3.707,0.0100056300910859
215,3.715,0.0141233317054943
216,3.722,0.0197589814747469
217,3.730,0.0305299995086979
218,3.737,0.0154745193588204
219,3.745,0.0159192140295353
220,3.753,0.0103305992735314
221,3.760,0.0284219757330973
222,3.768,0.00445549852773995
223,3.775,0.0147604423394993
224,3.783,0.00346776324951737
225,3.790,0.0222689408181091
226,3.798,0.015927765850126
227,3.805,0.0200796747468971
228,3.813,0.020981891819213
229,3.820,0.0131997350817017
230,3.828,0.0119768247372357
231,3.835,0.027870383304999
232,3.843,0.0213709996560885
233,3.850,0.0184206215523068
234,3.858,0.0144354731570538
235,3.866,0.0236799912155699
236,3.873,0.0220166621106842
237,3.881,0.0185959338744156
238,3.888,0.0236244043817305
239,3.896,0.021097341397187
240,3.903,0.0234234365978497
241,3.911,0.0221107321371816
242,3.918,0.0196820150894309
243,3.926,0.0136187742906447
244,3.933,0.0174414380946749
245,3.941,0.015380449332323
246,3.948,0.0197760851159283
247,3.956,0.024496690081979
248,3.964,0.0394281688332918
249,3.971,0.0811268460334069
250,3.979,0.0403645931879703
251,3.986,0.0232267447242643
252,3.994,0.0226837041167566
253,4.001,0.0273444463386727
254,4.009,0.0224399772299225
255,4.016,0.0318084966870033
256,4.024,0.0184719324758508
257,4.031,0.011305506820868
258,4.039,0.0118570992489663
259,4.046,0.0236158525611399
260,4.054,0.031752909853164
261,4.061,0.0207381649323788
262,4.069,0.023923718102404
263,4.077,0.0225682545387826
264,4.084,0.0196392559864775
265,4.092,0.017633854057965
266,4.099,0.0196178764350008
267,4.107,0.0098303177689771
268,4.114,0.0105529466088889
269,4.122,0.0245394491849324
270,4.129,0.0235688175478912
271,4.137,0.0159876285942607
272,4.144,0.0226067377314406
273,4.152,0.0247960038026525
274,4.159,0.0257965668117611
275,4.167,0.0173473680681775
276,4.175,0.0316246325443039
277,4.182,0.0149186510204268
278,4.190,0.0162869423149342
279,4.197,0.0105957057118422
280,4.205,0.00644379681507111
281,4.212,0.0258521536456005
282,4.220,0.0252663539351395
283,4.227,0.015927765850126
284,4.235,0.0110617799340338
285,4.242,0.0113867491164793
286,4.250,0.0145594745556185
287,4.257,0.0208792699721249
288,4.265,0.0189807658009958
289,4.272,0.00671317916367727
290,4.280,0.0092701735202881
291,4.288,0.0212726537192958
292,4.295,0.0196050487041148
293,4.303,0.0247489687894039
294,4.310,0.0204260234808193
295,4.318,0.0179759268815919
296,4.325,0.0127464885903961
297,4.333,0.0146963036850693
298,4.340,0.0152265165616909
299,4.348,0.0161458372751881
300,4.355,0.00932576035412747
301,4.363,0.013674361124484
302,4.370,0.0202250556969385
303,4.378,0.0164194955340896
304,4.386,0.0228461887079794
305,4.393,0.0204003680190473
306,4.401,0.0157139703353592
307,4.408,0.0223843903960831
308,4.416,0.0943351329356993
309,4.423,0.109018608889883
310,4.431,0.0564334640778424
311,4.438,0.0263823665222221
312,4.446,0.00848768193624165
313,4.453,0.0204559548528867
314,4.461,0.0238125444347253
315,4.468,0.0151324465351935
316,4.476,0.0169582602313019
317,4.483,0.00823540322881683
318,4.491,0.0239023385509274
319,4.499,0.0238937867303367
320,4.506,0.0343996983259768
321,4.514,0.0162228036605042
322,4.521,0.0354558481689248
323,4.529,0.0198273960394723
324,4.536,0.0136444297524167
325,4.544,0.0221834226122023
326,4.551,0.00806864272729873
327,4.559,0.0161800445575508
328,4.566,0.0195451859599801
329,4.574,0.00891954887607057
330,4.581,0.0219311439047775
331,4.589,0.0139651230245669
332,4.597,0.0173003330549288
333,4.604,0.0196178764350008
334,4.612,0.0173046089652241
335,4.619,0.0298201983996722
336,4.627,0.0157909367206753
337,4.634,0.00953100404830359
338,4.642,0.00938989900855751
339,4.649,0.0213624478354979
340,4.657,0.0136144983803493
341,4.664,0.0174542658255609
342,4.672,0.0275112068401908
343,4.679,0.0271648581062686
344,4.687,0.0168128792812605
345,4.694,0.0178134422903691
346,4.702,0.0210374786530523
347,4.710,0.0172319184902034
348,4.717,0.0143542308614424
349,4.725,0.0200240879130577
350,4.732,0.0180657209977939
351,4.740,0.0291959154965531
352,4.747,0.0184762083861462
353,4.755,0.0229958455683162
354,4.762,0.0263609869707455
355,4.770,0.0212085150648658
356,4.777,0.00984742141015844
357,4.785,0.0221748707916117
358,4.792,0.043695527308037
359,4.800,0.0151794815484422
360,4.807,0.0163040459561156
361,4.815,0.00285630807728434
362,4.823,0.0205970598926327
363,4.830,0.0219653511871402
364,4.838,0.0137470515995047
365,4.845,0.00488736546756887
366,4.853,0.0110318485619665
367,4.860,0.00787622676400862
368,4.868,0.0121307575078678
369,4.875,0.0177963386491878
370,4.883,0.0232310206345596
371,4.890,0.0212512741678191
372,4.898,0.00649510773861514
373,4.905,0.0123873121255879
374,4.913,0.0115706132591788
375,4.921,0.00580241027077074
376,4.928,0.0215719674399693
377,4.936,0.0201694688630992
378,4.943,0.0150341005984008
379,4.951,0.0134648415200126
380,4.958,0.0188524884921357
381,4.966,0.00798312452139202
382,4.973,0.0218798329812335
383,4.981,0.00638393407093641
384,4.988,0.00765815533894649
385,4.996,0.0154916230000018
386,5.003,0.00797457270080134
387,5.011,0.0150896874322402
388,5.018,0.0116518555547902
389,5.026,0.0147134073262506
390,5.034,0.0164066678032036
391,5.041,0.0269467866812065
392,5.049,0.0256853931440824
393,5.056,0.0206526467264721
394,5.064,0.0179203400477525
395,5.071,0.0220337657518656
396,5.079,0.00926589760999277
397,5.086,0.0169753638724833
398,5.094,0.00700821697405544
399,5.101,0
400,5.109,0.0121307575078678
401,5.116,0.0180742728183846
402,5.124,0.025629806310243
403,5.132,0.0240348917700828
404,5.139,0.021554863798788
405,5.147,0.019391253189348
406,5.154,0.0207039576500161
407,5.162,0.0121093779563911
408,5.169,0.015290655216121
409,5.177,0.0034720391598127
410,5.184,0.00647372818713846
411,5.192,0.00987307687193046
412,5.199,0.0110831594855105
413,5.207,0.00580668618106607
414,5.214,0.0166247392282658
415,5.222,0.0181213078316333
416,5.229,0.0142986440276031
417,5.237,0.0198188442188816
418,5.245,0.0203276775440266
419,5.252,0.0122761384579092
420,5.260,0.0123360012020439
421,5.267,0.0230728119536322
422,5.275,0.0249200052012173
423,5.282,0.011305506820868
424,5.290,0.0218285220576895
425,5.297,0.0199471215277417
426,5.305,0.0139394675627948
427,5.312,0.0089238247863659
428,5.320,0.00404501113938771
429,5.327,0.0183265515258094
430,5.335,0.00983886958956777
431,5.343,0.0168513624739186
432,5.350,0.0168983974871672
433,5.358,0.0167914997297838
434,5.365,0.0101210796690599
435,5.373,0.0112456440767333
436,5.380,0.0189722139804051
437,5.388,0.00567413296191066
438,5.395,0.0202378834278245
439,5.403,0.0233293665713524
440,5.410,0.00986880096163512
441,5.418,0.0214394142208139
442,5.425,0.00781636401987392
443,5.433,0.0264379533560615
444,5.440,0.0172019871181361
445,5.448,0.018245309230198
446,5.456,0.0206184394441094
447,5.463,0.0241204099759895
448,5.471,0.0365291016530541
449,5.478,0.033458998061003
450,5.486,0.0248344869953106
451,5.493,0.0210930654868917
452,5.501,0.00195409100496848
453,5.508,0.0131355964272717
454,5.516,0.0076709830698325
455,5.523,0.0178177182006645
456,5.531,0.0166033596767891
457,5.538,0.0263652628810408
458,5.546,0.011433784129728
459,5.553,0.0123744843947019
460,5.561,0.0128619381683702
461,5.569,0.0238424758067927
462,5.576,0.00778643264780657
463,5.584,0.0183351033464001
464,5.591,0.013024422759593
465,5.599,0.0212726537192958
466,5.606,0.0173088848755195
467,5.614,0.0109335026251737
468,5.621,0.0182367574096074
469,5.629,0.0183949660905348
470,5.636,0.0171977112078408
471,5.644,0.0112114367943706
472,5.651,0.0107026034692256
473,5.659,0.0185831061435296
474,5.667,0.028340733437486
475,5.674,0.0205414730587934
476,5.682,0.0208108554073995
477,5.689,0.0183051719743327
478,5.697,0.0139009843701368
479,5.704,0.0303033762630451
480,5.712,0.0060846203502629
481,5.719,0.015264999754349
482,5.727,0.028990671802377
483,5.734,0.0241759968098288
484,5.742,0.0215206565164253
485,5.749,0.0182837924228561
486,5.757,0.0208621663309436
487,5.764,0.0195366341393895
488,5.772,0.0221748707916117
489,5.780,0.021084513666301
490,5.787,0.0127635922315775
491,5.795,0.0228761200800468
492,5.802,0.0111088149472825
493,5.810,0.0151367224454889
494,5.817,0.0337583117816765
495,5.825,0.0217087965694201
496,5.832,0.0249499365732846
497,5.840,0.0127550404109868
498,5.847,0.018715659362685
499,5.855,0.0218798329812335
500,5.862,0.00777360491692056
501,5.870,0.0168128792812605
502,5.878,0.0211315486795497
503,5.885,0.00844492283328829
504,5.893,0.0183949660905348
505,5.900,0.00871002927159911
506,5.908,0.00994576734695117
507,5.915,0.021554863798788
508,5.923,0.020981891819213
509,5.930,0.019964225168923
510,5.938,0.0183179997052187
511,5.945,0.0311671101427029
512,5.953,0.0155899689367945
513,5.960,0.0153334143190743
514,5.968,0.0122675866373185
515,5.975,0.0121051020460958
516,5.983,0.0190919394686745
517,5.991,0.0227221873094147
518,5.998,0.0219610752768449
519,6.006,0.0104888079544588
520,6.013,0.0167829479091932
521,6.021,0.00869292563041777
522,6.028,0.0263267796883828
523,6.036,0.0054517856265532
524,6.043,0.0190064212627678
525,6.051,0.022739290950596
526,6.058,0.0270152012459318
527,6.066,0.0180828246389753
528,6.073,0.0137427756892094
529,6.081,0.0235688175478912
530,6.089,0.0106683961868629
531,6.096,0.0232524001860363
532,6.104,0.0177578554565298
533,6.111,0.020460230763182
534,6.119,0.0234277125081451
535,6.126,0.0272546522224707
536,6.134,0.0479586098724868
537,6.141,0.0373885596224166
538,6.149,0.0210759618457104
539,6.156,0.00823540322881683
540,6.164,0.0252107671013001
541,6.171,0.0216745892870574
542,6.179,0.0217686593135548
543,6.186,0.0319538776370447
544,6.194,0.0287469449155429
545,6.202,0.00610172399144425
546,6.209,0.0112755754488006
547,6.217,0.0208707181515342
548,6.224,0.0251338007159841
549,6.232,0.0259419477618026
550,6.239,0.0154745193588204
551,6.247,0.00510116098233566
552,6.254,0.0167530165371258
553,6.262,0.0101210796690599
554,6.269,0.0110703317546245
555,6.277,0.0121051020460958
556,6.284,0.0149186510204268
557,6.292,0.0140036062172249
558,6.300,0.0212384464369331
559,6.307,0.0131869073508157
560,6.315,0.0121820684314118
561,6.322,0.0124428989594273
562,6.330,0.0307694504852367
563,6.337,0.0189337307877471
564,6.345,0.0115235782459301
565,6.352,0.0187712461965243
566,6.360,0.0157011426044732
567,6.367,0.0132681496464271
568,6.375,0.017621026327079
569,6.382,0.0156370039500432
570,6.390,0.0104845320441635
571,6.397,0.0138967084598415
572,6.405,0.0142045740011057
573,6.413,0.0163339773281829
574,6.420,0.0162441832119809
575,6.428,0.0204816103146587
576,6.435,0.0148929955586547
577,6.443,0.0174328862740842
578,6.450,0.0113354381929353
579,6.458,0.00537054333094182
580,6.465,0.0227221873094147
581,6.473,0.0141660908084476
582,6.480,0.0210246509221663
583,6.488,0.0148758919174734
584,6.495,0.0259462236720979
585,6.503,0.0152094129205096
586,6.510,0.0071578738343922
587,6.518,0.013648705662712
588,6.526,0.00857320014214836
589,6.533,0.0220380416621609
590,6.541,0.0187840739274104
591,6.548,0.0177065445329857
592,6.556,0.0135418079053286
593,6.563,0.0175868190447163
594,6.571,0.0223972181269691
595,6.578,0.0107026034692256
596,6.586,0.00510971280292633
597,6.593,0.0151409983557842
598,6.601,0.0146492686718206
599,6.608,0.0279045905873617
600,6.616,0.0240562713215594
601,6.624,0.0157610053486079
602,6.631,0.0137684311509814
603,6.639,0.00915472394231404
604,6.646,0.00974479956307038
605,6.654,0.0172276425799081
606,6.661,0.0198444996806536
607,6.669,0.00809002227877541
608,6.676,0.0238039926141346
609,6.684,0.0286485989787501
610,6.691,0.00354472963483341
611,6.699,0.0265149197413776
612,6.706,0.0226238413726219
613,6.714,0.0241460654377615
614,6.721,0.0132895291979038
615,6.729,0.0152992070367116
616,6.737,0.0122205516240698
617,6.744,0.0165178414708824
618,6.752,0.0166803260621051
619,6.759,0.0084107155509256
620,6.767,0.0104845320441635
621,6.774,0.0164408750855663
622,6.782,0.0241503413480568
623,6.789,0.0203362293646173
624,6.797,0.0143927140541004
625,6.804,0.0178519254830271
626,6.812,0.0153376902293697
627,6.819,0.0101510110411273
628,6.827,0.0112071608840752
629,6.835,0.0193356663555087
630,6.842,0.0228547405285701
631,6.850,0.0111515740502359
632,6.857,0.0213367923737258
633,6.865,0.0183864142699441
634,6.872,0.0216104506326273
635,6.880,0.026061673250072
636,6.887,0.0180699969080893
637,6.895,0.0145637504659139
638,6.902,0.0112969550002773
639,6.910,0.0288709463141076
640,6.917,0.0264422292663568
641,6.925,0.0156455557706338
642,6.932,0.0102707365293967
643,6.940,0.0289350849685376
644,6.948,0.0100184578219719
645,6.955,0.0204645066734773
646,6.963,0.0263994701634035
647,6.970,0.0245993119290671
648,6.978,0.0242828945672122
649,6.985,0.0243427573113469
650,6.993,0.018677176170027
651,7.000,0.010771018033951
652,7.008,0.0280371438065171
653,7.015,0.0133835992244012
654,7.023,0.0486726868918079
655,7.030,0.0541800593522004
656,7.038,0.0729555814590201
657,7.046,0.0459532079439743
658,7.053,0.0296662656290401
659,7.061,0.0258735331970772
660,7.068,0.0285887362346154
661,7.076,0.0163468050590689
662,7.083,0.0322446395371276
663,7.091,0.0286015639655014
664,7.098,0.0202720907101872
665,7.106,0.0155001748205924
666,7.113,0.0163468050590689
667,7.121,0.0237013707670466
668,7.128,0.0233208147507617
669,7.136,0.0270750639900665
670,7.143,0.0107368107515883
671,7.151,0.027207617209222
672,7.159,0.0397403102848513
673,7.166,0.0452134754628812
674,7.174,0.0414207430309183
675,7.181,0.0217686593135548
676,7.189,0.0307138636513974
677,7.196,0.0304957922263352
678,7.204,0.0258778091073725
679,7.211,0.0229872937477255
680,7.219,0.0351992935512047
681,7.226,0.0685300143033475
682,7.234,0.0774666668205994
683,7.241,0.0730966864987662
684,7.249,0.0552191055539671
685,7.256,0.0531623927019105
686,7.264,0.0428617248004465
687,7.272,0.0433021435608661
688,7.279,0.0465945944882747
689,7.287,0.0278490037535223
690,7.294,0.0366402753207328
691,7.302,0.0281739729359679
692,7.309,0.0279345219594291
