#"+EI TIC Scan EA-Blank.d "
#Point,X(Minutes),Y(Counts)
0,2.095,0.109122572982202
1,2.102,0.105334658830091
2,2.110,0.10430483080567
3,2.117,0.093881830904519
4,2.125,0.101849635273399
5,2.132,0.0883264610426749
6,2.140,0.093710786803577
7,2.147,0.0785769472889831
8,2.155,0.0947905026907731
9,2.163,0.0678368031173358
10,2.170,0.0760397931250106
11,2.178,0.0697289784840062
12,2.185,0.0593772469582479
13,2.193,0.0709975555659924
14,2.200,0.0675695467096139
15,2.208,0.0686350089217316
16,2.215,0.0750919237322906
17,2.223,0.0633433320488396
18,2.230,0.0597300254164407
19,2.238,0.0551688493913217
20,2.245,0.0595981789219646
21,2.253,0.0632720636734472
22,2.260,0.0485088197108941
23,2.268,0.0456794652078125
24,2.276,0.0513951889142897
25,2.283,0.0413249674713318
26,2.291,0.043370369845096
27,2.298,0.0422051319074289
28,2.306,0.0375513069942997
29,2.313,0.0305670062058363
30,2.321,0.0453765746123945
31,2.328,0.0480990265523873
32,2.336,0.0423441052394443
33,2.343,0.0408973572189769
34,2.351,0.0591919491822275
35,2.358,0.0375085459690642
36,2.366,0.028076176485869
37,2.374,0.0414675042221167
38,2.381,0.0382141028854498
39,2.389,0.0478139530508174
40,2.396,0.0784237202818892
41,2.404,0.282137244503765
42,2.411,0.265396303124071
43,2.419,0.077629077896263
44,2.426,0.0647936434880767
45,2.434,0.0320707689266177
46,2.441,0.0347575866789144
47,2.449,0.0309090944077202
48,2.456,0.0471119595532014
49,2.464,0.0423619223332924
50,2.471,0.048159604671471
51,2.479,0.0490362056887985
52,2.487,0.0407655107245008
53,2.494,0.0437587824909851
54,2.502,0.0360867418799842
55,2.509,0.0357731610282573
56,2.517,0.0337028147231056
57,2.524,0.0403521541472244
58,2.532,0.0392546211661801
59,2.539,0.0356448779525508
60,2.547,0.0399352341511783
61,2.554,0.033727758654493
62,2.562,0.0371557675108715
63,2.569,0.0426434324160927
64,2.577,0.0332787678895203
65,2.585,0.0483555927038003
66,2.592,0.0435057797583418
67,2.600,0.0318712174755188
68,2.607,0.0309411651766469
69,2.615,0.039739246118849
70,2.622,0.0332146263516671
71,2.630,0.0486763003930665
72,2.637,0.042896435148736
73,2.645,0.0423512320769835
74,2.652,0.0363290543563186
75,2.660,0.0290774971601334
76,2.667,0.0377686755392468
77,2.675,0.04560819683242
78,2.682,0.0256067272785194
79,2.690,0.0407868912371185
80,2.698,0.0319888102949164
81,2.705,0.0245091942974752
82,2.713,0.050197880207696
83,2.720,0.0319496126884505
84,2.728,0.046338697680193
85,2.735,0.0523644388196275
86,2.743,0.0412216283270127
87,2.750,0.0386630936504225
88,2.758,0.0478638409135922
89,2.765,0.0308200089384796
90,2.773,0.0506254904600509
91,2.780,0.0486477930429095
92,2.788,0.0460037363158483
93,2.796,0.0509319444742386
94,2.803,0.033054272507034
95,2.811,0.0660836010826806
96,2.818,0.0408724132875895
97,2.826,0.0400136293641101
98,2.833,0.0439155729168485
99,2.841,0.0539180894031837
100,2.848,0.0554753034055094
101,2.856,0.0612587320686095
102,2.863,0.0464028392180462
103,2.871,0.0409329914066731
104,2.878,0.0492179400460493
105,2.886,0.060268101650654
106,2.893,0.0522860436066958
107,2.901,0.0460037363158483
108,2.909,0.0412216283270127
109,2.916,0.0455725626447238
110,2.924,0.0490896569703429
111,2.931,0.0460821315287801
112,2.939,0.043153001300149
113,2.946,0.0368920745219193
114,2.954,0.0744255644223709
115,2.961,1.89157671231715
116,2.969,20.4720368195233
117,2.976,63.8772034489047
118,2.984,100
119,2.991,16.3421199875793
120,2.999,0.147290351423646
121,3.006,0.101026485537615
122,3.014,0.071371714536803
123,3.022,0.0663722380030202
124,3.029,0.0579803868005552
125,3.037,0.0769662820051129
126,3.044,0.0798205804395819
127,3.052,0.0575634668045092
128,3.059,0.0521185629245234
129,3.067,0.0449311472661914
130,3.074,0.0673094171394314
131,3.082,0.041503138409813
132,3.089,0.0595518544779595
133,3.097,0.0523430583070098
134,3.104,0.0488865421004743
135,3.112,0.0414318700344205
136,3.120,0.0472081718599813
137,3.127,0.0620605012917749
138,3.135,0.0748389209996473
139,3.142,0.04342738454541
140,3.150,0.0330400188319555
141,3.157,0.0427432081416422
142,3.165,0.0586574363667838
143,3.172,0.0447422860714014
144,3.180,0.0401632929524343
145,3.187,0.0502940925144758
146,3.195,0.038260427329455
147,3.202,0.0392902553538763
148,3.210,0.0367887353776002
149,3.217,0.0343834277081038
150,3.225,0.0214874151808339
151,3.233,0.0279051323849271
152,3.240,0.0244343625033131
153,3.248,0.0414069261030331
154,3.255,0.0472758768166042
155,3.263,0.0522753533503869
156,3.270,0.0340342126686807
157,3.278,0.034173186000696
158,3.285,0.0389695476646102
159,3.293,0.030399525523664
160,3.300,0.0303282571482715
161,3.308,0.0331362311387354
162,3.315,0.040213180815209
163,3.323,0.0374515312687503
164,3.331,0.0363468714501668
165,3.338,0.0333892338713787
166,3.346,0.031906851663215
167,3.353,0.0240245693448063
168,3.361,0.0259880130868692
169,3.368,0.019381434687986
170,3.376,0.0351745066749604
171,3.383,0.0175925984656346
172,3.391,0.0256209809535979
173,3.398,0.0272565901688554
174,3.406,0.0200477939979057
175,3.413,0.0291630192106044
176,3.421,0.0265474698337002
177,3.428,0.0285180404133024
178,3.436,0.0236432835364565
179,3.444,0.0325340133666689
180,3.451,0.0299647884337698
181,3.459,0.0270570387177565
182,3.466,0.0244414893408523
183,3.474,0.0189930220420969
184,3.481,0.0359335148728904
185,3.489,0.0699534738664925
186,3.496,0.0781457736178585
187,3.504,0.0381606516039055
188,3.511,0.03593707829166
189,3.519,0.0184727629017318
190,3.526,0.0200869916043716
191,3.534,0.0251612999323164
192,3.542,0.0350355333429451
193,3.549,0.0193422370815201
194,3.557,0.0167409413796945
195,3.564,0.0220005474836598
196,3.572,0.0243737843842295
197,3.579,0.0200442305791361
198,3.587,0.0187043851217574
199,3.594,0.0117735356148383
200,3.602,0.0291060045102904
201,3.609,0.0230232486705419
202,3.617,0.0211773977478766
203,3.624,0.0255853467659017
204,3.632,0.0218900815018014
205,3.639,0.0282222766554236
206,3.647,0.0188077242660765
207,3.655,0.0229056558511443
208,3.662,0.0241706695143609
209,3.670,0.0207782948456787
210,3.677,0.016081708907314
211,3.685,0.0228593314071392
212,3.692,0.0186046093962079
213,3.700,0.0227132312375846
214,3.707,0.0165306996722866
215,3.715,0.0197270863086395
216,3.722,0.0184264384577267
217,3.730,0.0150411906265837
218,3.737,0.0278374274283042
219,3.745,0.0118661845028486
220,3.753,0.00939317187672937
221,3.760,0.0422336392575859
222,3.768,0.0311692239779028
223,3.775,0.0232477440530282
224,3.783,0.0225920749994174
225,3.790,0.0254891344591218
226,3.798,0.0118697479216182
227,3.805,0.0169511830871023
228,3.813,0.0119196357843929
229,3.820,0
230,3.828,0.0146207072117681
231,3.835,0.010601170839632
232,3.843,0.0204290798062555
233,3.850,0.0207569143330609
234,3.858,0.0308805870575633
235,3.866,0.0200299769040576
236,3.873,0.0213698223614363
237,3.881,0.0216798397943936
238,3.888,0.0256993761665297
239,3.896,0.0123900070619833
240,3.903,0.0153975325035461
241,3.911,0.0241457255829735
242,3.918,0.0379575367340369
243,3.926,0.0187435827282233
244,3.933,0.0159498624128379
245,3.941,0.0275701710205824
246,3.948,0.0226562165372706
247,3.956,0.0228878387572962
248,3.963,0.0275274099953469
249,3.971,0.0648934192136262
250,3.979,0.0609023901916471
251,3.986,0.0219756035522724
252,3.994,0.0242989525900674
253,4.001,0.019381434687986
254,4.009,0.013900896620304
255,4.016,0.0210811854410967
256,4.024,0.0268040359851132
257,4.031,0.0311514068840547
258,4.039,0.0204504603188732
259,4.046,0.019769847333875
260,4.054,0.0188362316162335
261,4.061,0.0167445047984641
262,4.069,0.0274276342697974
263,4.077,0.0170616490689606
264,4.084,0.0202010210049995
265,4.092,0.0182589577755544
266,4.099,0.0165663338599829
267,4.107,0.0256423614662157
268,4.114,0.028104683836026
269,4.122,0.0271069265805312
270,4.129,0.0227916264505163
271,4.137,0.0217404179134772
272,4.144,0.0230945170459344
273,4.152,0.0264726380395381
274,4.159,0.0224424114110932
275,4.167,0.0108791175036627
276,4.174,0.0221609013282929
277,4.182,0.0208281827084534
278,4.190,0.0339166198492831
279,4.197,0.030399525523664
280,4.205,0.0186473704214434
281,4.212,0.0118091698025346
282,4.220,0.0226348360246529
283,4.227,0.0300538739030104
284,4.235,0.0205252921130353
285,4.242,0.0201618233985337
286,4.250,0.0293803877555515
287,4.257,0.0230303755080812
288,4.265,0.0273136048691694
289,4.272,0.0228094435443645
290,4.280,0.0199480182723562
291,4.288,0.0131882128663791
292,4.295,0.0161993017267116
293,4.303,0.0180095184616807
294,4.310,0.0219399693645762
295,4.318,0.023543507810907
296,4.325,0.0217261642383987
297,4.333,0.0214018931303629
298,4.340,0.0147739342188619
299,4.348,0.030730923469239
300,4.355,0.0234045344788917
301,4.363,0.0226277091871136
302,4.370,0.0371023162293271
303,4.378,0.0264690746207685
304,4.385,0.0176389229096398
305,4.393,0.0255390223218966
306,4.401,0.0226098920932655
307,4.408,0.0291630192106044
308,4.416,0.0662760256962404
309,4.423,0.125375325990458
310,4.431,0.0678368031173358
311,4.438,0.0315362561111741
312,4.446,0.0291487655355259
313,4.453,0.0239034131066391
314,4.461,0.0104229999011508
315,4.468,0.0165235728347474
316,4.476,0.022652653118501
317,4.483,0.0236717908866135
318,4.491,0.0296155733943467
319,4.499,0.0146492145619251
320,4.506,0.0159854966005341
321,4.514,0.0242775720774496
322,4.521,0.0227844996129771
323,4.529,0.0214339638992895
324,4.536,0.0197021423772522
325,4.544,0.0196273105830901
326,4.551,0.0233475197785777
327,4.559,0.0175640911154776
328,4.566,0.0306311477436896
329,4.574,0.0315932708114881
330,4.581,0.0259024910363983
331,4.589,0.0117450282646813
332,4.596,0.029052553228746
333,4.604,0.029612009975577
334,4.612,0.0355415388082317
335,4.619,0.0251114120695417
336,4.627,0.0284824062256062
337,4.634,0.0121476945856489
338,4.642,0.0125289803939987
339,4.649,0.012553924325386
340,4.657,0.0240708937888114
341,4.664,0.0112532764744732
342,4.672,0.0250187631815315
343,4.679,0.0228557679883696
344,4.687,0.0206500117699722
345,4.694,0.0234080978976613
346,4.702,0.0159142282251416
347,4.709,0.0274169440134885
348,4.717,0.0100951653743453
349,4.725,0.0104621975076166
350,4.732,0.0129601540651232
351,4.740,0.00948225734596998
352,4.747,0.0189538244356311
353,4.755,0.0158037622432833
354,4.762,0.0285037867382239
355,4.770,0.0239639912257227
356,4.777,0.0217297276571683
357,4.785,0.0194740835759962
358,4.792,0.0212985539860438
359,4.800,0.0242882623337585
360,4.807,0.029669024675891
361,4.815,0.0203791919434808
362,4.823,0.0230375023456204
363,4.830,0.0131775226100703
364,4.838,0.0207533509142913
365,4.845,0.0307701210757049
366,4.853,0.0256387980474461
367,4.860,0.0217083471445506
368,4.868,0.0168656610366313
369,4.875,0.0240103156697278
370,4.883,0.0310017432957305
371,4.890,0.0216406421879277
372,4.898,0.0184442555515748
373,4.905,0.0305634427870667
374,4.913,0.0219043351768799
375,4.920,0.021950659620885
376,4.928,0.0223996503858577
377,4.936,0.0263942428266064
378,4.943,0.0247978312178148
379,4.951,0.0194277591319911
380,4.958,0.0247907043802755
381,4.966,0.0279300763163144
382,4.973,0.024045949857424
383,4.981,0.0276521296522837
384,4.988,0.0255532759969751
385,4.996,0.029166582629374
386,5.003,0.0233653368724258
387,5.011,0.0143427605477374
388,5.018,0.0323202082404914
389,5.026,0.0201048086982197
390,5.034,0.0170759027440391
391,5.041,0.0193493639190594
392,5.049,0.0134020179925566
393,5.056,0.0254998247154307
394,5.064,0.0407049326054172
395,5.071,0.0267648383786473
396,5.079,0.0264156233392241
397,5.086,0.0281438814424919
398,5.094,0.0262410158195126
399,5.101,0.00928270589487102
400,5.109,0.0329758772941023
401,5.116,0.0207070264702862
402,5.124,0.0147774976376315
403,5.131,0.0203328674994756
404,5.139,0.0262730865884392
405,5.147,0.0160353844633089
406,5.154,0.0221003232092092
407,5.162,0.0242063037020571
408,5.169,0.0186830046091396
409,5.177,0.0245127577162448
410,5.184,0.0254820076215826
411,5.192,0.017617542397022
412,5.199,0.019940891434817
413,5.207,0.0250187631815315
414,5.214,0.0273171682879391
415,5.222,0.0249653118999871
416,5.229,0.0300823812531674
417,5.237,0.0155828302795666
418,5.245,0.0305848232996844
419,5.252,0.0335424608784725
420,5.260,0.0286427600702393
421,5.267,0.0254998247154307
422,5.275,0.0175925984656346
423,5.282,0.0229270363637621
424,5.290,0.019798354684032
425,5.297,0.0257991518920792
426,5.305,0.0200905550231412
427,5.312,0.0273064780316302
428,5.320,0.0197627204963358
429,5.327,0.0189395707605526
430,5.335,0.0197912278464928
431,5.342,0.0193351102439809
432,5.350,0.0183017188007899
433,5.358,0.0266080479527838
434,5.365,0.0281830790489577
435,5.373,0.0246517310482602
436,5.380,0.0126038121881608
437,5.388,0.0157146767740427
438,5.395,0.0168478439427832
439,5.403,0.026009393599487
440,5.410,0.0140149260209319
441,5.418,0.0261483669315023
442,5.425,0.0224780455987894
443,5.433,0.0223889601295488
444,5.440,0.0244771235285486
445,5.448,0.0154509837850905
446,5.456,0.0229377266200709
447,5.463,0.0358087952159535
448,5.471,0.0238072007998592
449,5.478,0.0354595801765303
450,5.486,0.0360083466670525
451,5.493,0.0309197846640291
452,5.501,0.00820299000767489
453,5.508,0.0193422370815201
454,5.516,0.0295443050189542
455,5.523,0.0276200588833571
456,5.531,0.0203506845933238
457,5.538,0.0215978811626922
458,5.546,0.0271389973494578
459,5.553,0.0305848232996844
460,5.561,0.0170224514624948
461,5.569,0.0190001488796362
462,5.576,0.0344083716394912
463,5.584,0.0296440807445037
464,5.591,0.0159712429254556
465,5.599,0.0241457255829735
466,5.606,0.0214268370617503
467,5.614,0.0166090948852184
468,5.621,0.022424594317245
469,5.629,0.032883228406092
470,5.636,0.0316966099558072
471,5.644,0.0266187382090927
472,5.651,0.0174785690650067
473,5.659,0.031375902266541
474,5.666,0.0259559423179426
475,5.674,0.0321028396955444
476,5.682,0.0226419628621921
477,5.689,0.0278873152910789
478,5.697,0.02645482094569
479,5.704,0.0207319704016736
480,5.712,0.0271069265805312
481,5.719,0.0293803877555515
482,5.727,0.0363183641000098
483,5.734,0.0304707938990565
484,5.742,0.0318106393564352
485,5.749,0.0330899066947302
486,5.757,0.0246944920734957
487,5.764,0.0250935949756936
488,5.772,0.0267684017974169
489,5.780,0.0256102906972891
490,5.787,0.026957262992207
491,5.795,0.0297688004014405
492,5.802,0.0244806869473182
493,5.810,0.0172540736825203
494,5.817,0.0176674302597967
495,5.825,0.0270641655552957
496,5.832,0.0201938941674603
497,5.840,0.0285073501569935
498,5.847,0.0281866424677274
499,5.855,0.0260557180434921
500,5.862,0.0104942682765432
501,5.870,0.0176246692345613
502,5.877,0.0218188131264089
503,5.885,0.0315540732050222
504,5.893,0.0221680281658321
505,5.900,0.0309803627831127
506,5.908,0.0223996503858577
507,5.915,0.0257563908668437
508,5.923,0.0195596056264672
509,5.930,0.029309119380159
510,5.938,0.0193671810129075
511,5.945,0.0325696475543651
512,5.953,0.0262659597508999
513,5.960,0.015522252160483
514,5.968,0.0244236722470042
515,5.975,0.0243060794276066
516,5.983,0.0253572879646458
517,5.991,0.0299754786900787
518,5.998,0.0251078486507721
519,6.006,0.0239675546444923
520,6.013,0.0293625706617033
521,6.021,0.016081708907314
522,6.028,0.0329010454999402
523,6.036,0.0304102157799729
524,6.043,0.0344974571087318
525,6.051,0.0300467470654712
526,6.058,0.0312369289345257
527,6.066,0.0272957877753213
528,6.073,0.0343406666828683
529,6.081,0.0305955135559933
530,6.088,0.0307629942381657
531,6.096,0.0401739832087431
532,6.104,0.0302997497981145
533,6.111,0.0353918752199075
534,6.119,0.0399209804760998
535,6.126,0.047874531169901
536,6.134,0.0597727864416762
537,6.141,0.0610199830110447
538,6.149,0.0576774962051372
539,6.156,0.0444536491510618
540,6.164,0.0493355328654469
541,6.171,0.0402559418404445
542,6.179,0.0446603274397
543,6.186,0.0272922243565517
544,6.194,0.0387414888633542
545,6.202,0.0434024406140227
546,6.209,0.0289848482721232
547,6.217,0.0338952393366653
548,6.224,0.0355486656457709
549,6.232,0.0365286058074176
550,6.239,0.0358551196599586
551,6.247,0.0313010704723789
552,6.254,0.0380644392971256
553,6.262,0.0289812848533536
554,6.269,0.035320606844515
555,6.277,0.03129038021607
556,6.284,0.0361793907679944
557,6.292,0.0247265628424223
558,6.299,0.0362827299123135
559,6.307,0.0253501611271065
560,6.315,0.0348217282167676
561,6.322,0.0350426601804843
562,6.330,0.0337420123295715
563,6.337,0.0217475447510164
564,6.345,0.0278160469156864
565,6.352,0.0372484163988817
566,6.360,0.0334213046403053
567,6.367,0.0217653618448646
568,6.375,0.0256067272785194
569,6.382,0.0328190868682388
570,6.390,0.0272957877753213
571,6.397,0.0287282821207102
572,6.405,0.0318534003816707
573,6.412,0.0299719152713091
574,6.420,0.0218508838953355
575,6.428,0.0210811854410967
576,6.435,0.0250543973692277
577,6.443,0.0265332161586217
578,6.450,0.0317892588438174
579,6.458,0.0309447285954165
580,6.465,0.033139794557505
581,6.473,0.0336101658350954
582,6.480,0.0248512824993591
583,6.488,0.0416029141353624
584,6.495,0.0360297271796702
585,6.503,0.0360689247861361
586,6.510,0.0412251917457823
587,6.518,0.0226205823495744
588,6.526,0.0302498619353398
589,6.533,0.0206678288638203
590,6.541,0.0328761015685528
591,6.548,0.0234864931105931
592,6.556,0.0334391217341534
593,6.563,0.0350212796678666
594,6.571,0.0358943172664245
595,6.578,0.0410220768759137
596,6.586,0.0267648383786473
597,6.593,0.0274953392264203
598,6.601,0.0389659842458405
599,6.608,0.031044504320966
600,6.616,0.0439369534294663
601,6.623,0.0327620721679248
602,6.631,0.0321562909770887
603,6.639,0.0434416382204885
604,6.646,0.035709019490404
605,6.654,0.0327300013989982
606,6.661,0.0327905795180818
607,6.669,0.026957262992207
608,6.676,0.0430639158309084
609,6.684,0.0327406916553071
610,6.691,0.022738175168972
611,6.699,0.0299362810836128
612,6.706,0.0365891839265012
613,6.714,0.0395290044114412
614,6.721,0.0364894082009517
615,6.729,0.0319389224321416
616,6.737,0.0253323440332584
617,6.744,0.0341232981379213
618,6.752,0.0347290793287574
619,6.759,0.0441044341116386
620,6.767,0.0350319699241754
621,6.774,0.0499377506375134
622,6.782,0.0454264624751692
623,6.789,0.0387735596322808
624,6.797,0.0365392960637265
625,6.804,0.0279015689661574
626,6.812,0.0263372281262924
627,6.819,0.0394185384295828
628,6.827,0.0273670561507138
629,6.834,0.0297616735639013
630,6.842,0.0396073996243729
631,6.850,0.0439761510359322
632,6.857,0.0289777214345839
633,6.865,0.0405160714106271
634,6.872,0.0356662584651685
635,6.880,0.0375263630629124
636,6.887,0.0326302256734487
637,6.895,0.0437765995848332
638,6.902,0.0365927473452708
639,6.910,0.0437053312094407
640,6.917,0.0402915760281407
641,6.925,0.0425329664342344
642,6.932,0.0490112617574111
643,6.940,0.0384742324556324
644,6.948,0.0524143266824022
645,6.955,0.0344903302711926
646,6.963,0.035965585641817
647,6.970,0.038648839975344
648,6.978,0.0423191613080569
649,6.985,0.0384742324556324
650,6.993,0.0282864181932768
651,7.000,0.0376403924635403
652,7.008,0.0407013691866475
653,7.015,0.0469622959648772
654,7.023,0.0633647125614574
655,7.030,0.115615121980457
656,7.038,0.128974378947778
657,7.045,0.0827318935743649
658,7.053,0.0796566631761792
659,7.061,0.0660586571512933
660,7.068,0.0633433320488396
661,7.076,0.043740965397137
662,7.083,0.0508820566114638
663,7.091,0.0585576606412344
664,7.098,0.0526887099276633
665,7.106,0.0569042343321287
666,7.113,0.0588462975615739
667,7.121,0.0493319694466773
668,7.128,0.0580480917571781
669,7.136,0.0541033871792041
670,7.143,0.0491573619269657
671,7.151,0.0593131054203947
672,7.158,0.0664827039848786
673,7.166,0.0860031120048799
674,7.174,0.0957882599462679
675,7.181,0.0859567875608748
676,7.189,0.0770197332866573
677,7.196,0.0779497855855292
678,7.204,0.0741761251084972
679,7.211,0.062277869836722
680,7.219,0.0732140020406987
681,7.226,0.0981187358216021
682,7.234,0.149303683028484
683,7.241,0.16489007672682
684,7.249,0.137159551861605
685,7.256,0.104347591830905
686,7.264,0.0964082948121825
687,7.272,0.0747640892054852
688,7.279,0.0793751530933789
689,7.287,0.0778464464412101
690,7.294,0.0764068252582819
691,7.302,0.0740870396392566
692,7.309,0.0643838503295699
693,7.317,0.0747819062993333
694,7.324,0.0628444534210923
