#"+EI TIC Scan EA-End-Blank.d "
#Point,X(Minutes),Y(Counts)
0,2.095,0.0859127060136612
1,2.102,0.0885146657056228
2,2.110,0.0893232747175863
3,2.117,0.0866772818616069
4,2.125,0.0844235844668771
5,2.132,0.0825701885632183
6,2.140,0.0856364979848222
7,2.147,0.0751726170082259
8,2.155,0.0641843410783265
9,2.162,0.0593046659021709
10,2.170,0.0709294212028732
11,2.178,0.0674107710963589
12,2.185,0.0554097323940499
13,2.193,0.0734152934624242
14,2.200,0.0616744507293113
15,2.208,0.0523794501066423
16,2.215,0.0446656403737039
17,2.223,0.0589764186794926
18,2.230,0.0694042725218926
19,2.238,0.0509143466493224
20,2.245,0.0517749948551251
21,2.253,0.0524635134197672
22,2.260,0.0533681947895877
23,2.268,0.0560702298543171
24,2.275,0.0370799271179081
25,2.283,0.0423518977553134
26,2.291,0.0570229474030661
27,2.298,0.0429083168279021
28,2.306,0.0479160884812005
29,2.313,0.0461627679503095
30,2.321,0.0408547701787078
31,2.328,0.0486886703589676
32,2.336,0.0506221265608406
33,2.343,0.0438530283468297
34,2.351,0.055325669080925
35,2.358,0.0450539328200427
36,2.366,0.049000905522003
37,2.373,0.046458991053702
38,2.381,0.0646606998527011
39,2.389,0.0572631282977087
40,2.396,0.072698753793407
41,2.404,0.277781213698909
42,2.411,0.27445871132302
43,2.419,0.0854003201050904
44,2.426,0.0516909315420002
45,2.434,0.0602613864658306
46,2.441,0.0547412289039613
47,2.449,0.0487847427168246
48,2.456,0.0418995570704031
49,2.464,0.0466831598887018
50,2.471,0.0479200914961112
51,2.479,0.0625230898903818
52,2.486,0.0490369326561993
53,2.494,0.0571710589547624
54,2.502,0.0451500051778998
55,2.509,0.0515708410946789
56,2.517,0.0563264228086025
57,2.524,0.0563544439129775
58,2.532,0.0522473506145889
59,2.539,0.0494092130428954
60,2.547,0.0594447714240457
61,2.554,0.0531960651484272
62,2.562,0.0454222101918281
63,2.569,0.0613902366706509
64,2.577,0.0634277712602023
65,2.584,0.0670264816649308
66,2.592,0.0625991471736853
67,2.600,0.0721303256760862
68,2.607,0.0602213563167235
69,2.615,0.0631595692611848
70,2.622,0.0529718963134274
71,2.630,0.0503499215469123
72,2.637,0.0841513794529488
73,2.645,0.0492811165657527
74,2.652,0.059564861871367
75,2.660,0.0629794335902028
76,2.667,0.0648648536131473
77,2.675,0.0631395541866312
78,2.682,0.0622829089957392
79,2.690,0.0638360787810948
80,2.697,0.068639696673947
81,2.705,0.0602453744061878
82,2.713,0.0876620235296416
83,2.720,0.0694963418648389
84,2.728,0.084507647780002
85,2.735,0.0924095992137438
86,2.743,0.081745567491612
87,2.750,0.0819777423564332
88,2.758,0.0859807572671433
89,2.765,0.0687597871212682
90,2.773,0.105783672030426
91,2.780,0.110347109028636
92,2.788,0.0843355181388415
93,2.795,0.0866812848765176
94,2.803,0.0903960827136566
95,2.810,0.110695371325868
96,2.818,0.100007321514272
97,2.826,0.090612245518835
98,2.833,0.0949715287565983
99,2.841,0.108886008586227
100,2.848,0.0998472009178433
101,2.856,0.116071420350952
102,2.863,0.115110696772381
103,2.871,0.104746891168553
104,2.878,0.112492725020777
105,2.886,0.111928299918367
106,2.893,0.120018393052912
107,2.901,0.127287868130761
108,2.908,0.124529790857282
109,2.916,0.140762016320212
110,2.924,0.14616208343476
111,2.931,0.126479259118798
112,2.939,0.140149555038873
113,2.946,0.136394727052627
114,2.954,0.168606988039112
115,2.961,1.96688537939234
116,2.969,19.653810463889
117,2.976,61.257392617824
118,2.984,100
119,2.991,14.9359851866031
120,2.999,0.238295474619665
121,3.006,0.183209986433382
122,3.014,0.200178766639882
123,3.021,0.190171229363107
124,3.029,0.18798958623677
125,3.037,0.185215496903648
126,3.044,0.214101252499332
127,3.052,0.205999150320055
128,3.059,0.198861774734259
129,3.067,0.21239596814737
130,3.074,0.195114952777834
131,3.082,0.192460953892033
132,3.089,0.196544029100958
133,3.097,0.188033619400788
134,3.104,0.197873030051313
135,3.112,0.200238811863543
136,3.119,0.206155267901573
137,3.127,0.222831828019591
138,3.135,0.229628947337977
139,3.142,0.208981396428534
140,3.150,0.216723227265848
141,3.157,0.2836456305431
142,3.165,0.305766290939684
143,3.172,0.266344600099011
144,3.180,0.254083365427505
145,3.187,0.269963325578293
146,3.195,0.263618546944817
147,3.202,0.253823169458309
148,3.210,0.249567964608224
149,3.217,0.258178449681162
150,3.225,0.257025581386877
151,3.232,0.255996806554825
152,3.240,0.235729542061899
153,3.248,0.275011127380698
154,3.255,0.29198791361702
155,3.263,0.297864339505942
156,3.270,0.294894102442195
157,3.278,0.275931820810161
158,3.285,0.26526778908803
159,3.293,0.268922541701508
160,3.300,0.256273014583664
161,3.308,0.248723328462064
162,3.315,0.266480702605975
163,3.323,0.240124852433859
164,3.330,0.24475233767064
165,3.338,0.209529809471301
166,3.346,0.2799828718998
167,3.353,0.473732796593082
168,3.361,0.42778218843304
169,3.368,0.372304404785508
170,3.376,0.339087387056435
171,3.383,0.293244860298983
172,3.391,0.272749423956147
173,3.398,0.240881422251983
174,3.406,0.20738019046425
175,3.413,0.164571949009116
176,3.421,0.132327663903345
177,3.428,0.140065491725748
178,3.436,0.116819984139254
179,3.443,0.111207757234439
180,3.451,0.121907816090767
181,3.459,0.111544010486938
182,3.466,0.0932382233002608
183,3.474,0.0794318248732215
184,3.481,0.0982379889237378
185,3.489,0.143099777028066
186,3.496,0.124433718499425
187,3.504,0.0730950522695673
188,3.511,0.0812091634935768
189,3.519,0.0867213150256247
190,3.526,0.0817255524170584
191,3.534,0.0825381644439326
192,3.541,0.0784911163692046
193,3.549,0.0766857566444744
194,3.557,0.0774183083731343
195,3.564,0.0639281481240411
196,3.572,0.0746362130101908
197,3.579,0.0714057799772477
198,3.587,0.069744528789303
199,3.594,0.0530199324923559
200,3.602,0.0598570819598489
201,3.609,0.044649628314061
202,3.617,0.054925367589854
203,3.624,0.0626351743078817
204,3.632,0.0499936532198591
205,3.639,0.0671145479929664
206,3.647,0.0444094474194184
207,3.654,0.0295862832050587
208,3.662,0.0422077892185278
209,3.670,0.0464109548747735
210,3.677,0.0471314975587013
211,3.685,0.038296843650764
212,3.692,0.0418355088318318
213,3.700,0.0531600380142308
214,3.707,0.0500977316075375
215,3.715,0.0339455664428221
216,3.722,0.0428562776340629
217,3.730,0.0451339931182569
218,3.737,0.0463268915616486
219,3.745,0.0554697776177106
220,3.752,0.0289738219237201
221,3.760,0.0375202587580862
222,3.767,0.0441852785844186
223,3.775,0.0383368737998711
224,3.783,0.0429043138129914
225,3.790,0.0408027309848686
226,3.798,0.0342738136655003
227,3.805,0.0343378619040717
228,3.813,0.0385890637392459
229,3.820,0.0472956211700404
230,3.828,0.0356348387351418
231,3.835,0.0290939123710414
232,3.843,0.0309873384238073
233,3.850,0.0362833271506768
234,3.858,0.0339015332788043
235,3.865,0.0183017841717668
236,3.873,0.0358349894806773
237,3.881,0.0359710919876414
238,3.888,0.0342417895462146
239,3.896,0.0324604479109486
240,3.903,0.0398620224808517
241,3.911,0.0358550045552308
242,3.918,0.0531800530887843
243,3.926,0.0509663858431616
244,3.933,0.0469313468131658
245,3.941,0.0426721389481702
246,3.948,0.051002412977358
247,3.956,0.0496093637884309
248,3.963,0.0517269586761966
249,3.971,0.105835711224266
250,3.978,0.085584458790983
251,3.986,0.0514067174833398
252,3.994,0.0544570148453009
253,4.001,0.052783754612624
254,4.009,0.0473036271998619
255,4.016,0.057203083074048
256,4.024,0.0425360364412061
257,4.031,0.0385810577094244
258,4.039,0.0545971203671757
259,4.046,0.042564057545581
260,4.054,0.0405105108963867
261,4.061,0.0515188019008396
262,4.069,0.054745231918872
263,4.076,0.0480922211372717
264,4.084,0.0487287005080747
265,4.092,0.042411942978974
266,4.099,0.0418475178765639
267,4.107,0.0410268998198683
268,4.114,0.0435848263478121
269,4.122,0.0471755307227191
270,4.129,0.0447176795675431
271,4.137,0.0542408520401225
272,4.144,0.0548813344258362
273,4.152,0.0530679686712845
274,4.159,0.0443053690317399
275,4.167,0.0521592842865533
276,4.174,0.040906809372547
277,4.182,0.0394176878257629
278,4.189,0.0395938204818341
279,4.197,0.0350624076029102
280,4.205,0.037163990431033
281,4.212,0.031695872063003
282,4.220,0.0396258446011198
283,4.227,0.0349022870064818
284,4.235,0.0342457925611253
285,4.242,0.0252029818778311
286,4.250,0.0308992720957717
287,4.257,0.0387892144847814
288,4.265,0.0277128722268464
289,4.272,0.0282172521055958
290,4.280,0.0270363627069364
291,4.287,0.0322402820908596
292,4.295,0.0231734533181011
293,4.303,0.0274286581681859
294,4.310,0.0277408933312213
295,4.318,0.0363513784041589
296,4.325,0.0316598449288066
297,4.333,0.0470034010815586
298,4.340,0.035354627691392
299,4.348,0.0353466216615706
300,4.355,0.0353226035721064
301,4.363,0.0338014579060365
302,4.370,0.0336493433394295
303,4.378,0.0212720212355137
304,4.385,0.033449192593894
305,4.393,0.0301587143372903
306,4.400,0.0127576085204332
307,4.408,0.0315237424218424
308,4.416,0.0742999597576911
309,4.423,0.145933911584849
310,4.431,0.0804085605114348
311,4.438,0.0362032668524626
312,4.446,0.0288537314763988
313,4.453,0.044621607209686
314,4.461,0.0366796256268371
315,4.468,0.0268161968868473
316,4.476,0.0259115155170268
317,4.483,0.0200350896281043
318,4.491,0.0240501135835466
319,4.498,0.0294461776831839
320,4.506,0.0179935520236421
321,4.513,0.0178654555464994
322,4.521,0.0236978482714041
323,4.529,0.0365475261347837
324,4.536,0.0186900766181057
325,4.544,0.027496709421668
326,4.551,0.0318119594954136
327,4.559,0.0137543592332001
328,4.566,0.0353306096019278
329,4.574,0.0258714853679197
330,4.581,0.0239140110765824
331,4.589,0.0202752705227469
332,4.596,0.0391695009012988
333,4.604,0.024210234179975
334,4.611,0.0276248058988107
335,4.619,0.0257313798460448
336,4.627,0.0195106946748013
337,4.634,0.0105839714239176
338,4.642,0.0283373425529172
339,4.649,0.010744092020346
340,4.657,0.0256913496969377
341,4.664,0.0108361613632924
342,4.672,0.0191264052433731
343,4.679,0.00470354252008443
344,4.687,0.0190383389153375
345,4.694,0.0211319157136389
346,4.702,0.0205594845814073
347,4.709,0.0145589652302528
348,4.717,0.0288617375062202
349,4.724,0.009266979518294
350,4.732,0.0149632697362345
351,4.740,0.019818926822926
352,4.747,0.0240661256431894
353,4.755,0.0206915840734608
354,4.762,0.0151153843028415
355,4.770,0.0245424844175639
356,4.777,0.013658286875343
357,4.785,0.0144548868425744
358,4.792,0.016476409372483
359,4.800,0.0197028393905154
360,4.807,0.0253791145339024
361,4.815,0.0109442427658816
362,4.822,0.0119209784040948
363,4.830,0.0227611427822979
364,4.838,0.0211879579223888
365,4.845,0.0243023035229213
366,4.853,0.0155837370473946
367,4.860,0.0112124447648991
368,4.868,0.0107200739308818
369,4.875,0.0244223939702426
370,4.883,0.0145349471407886
371,4.890,0.0213160543995316
372,4.898,0.0101596518433824
373,4.905,0.0145549622153421
374,4.913,0.00636879672293985
375,4.920,0.0185099409471237
376,4.928,0.0230453568409583
377,4.935,0.0089507413403479
378,4.943,0.0257473919056877
379,4.951,0.0138424255612357
380,4.958,0.0277088692119357
381,4.966,0.0247266231034566
382,4.973,0.0203032916271219
383,4.981,0.0228732271997978
384,4.988,0.0175692324431069
385,4.996,0.0159119842700728
386,5.003,0.0193145469441765
387,5.011,0.0248907467147957
388,5.018,0.0178534465017673
389,5.026,0.0180175701131064
390,5.033,0.0150713511388237
391,5.041,0.0234056281829222
392,5.049,0.0265119677536333
393,5.056,0.0196427941668547
394,5.064,0.0320201162707705
395,5.071,0.028657583745774
396,5.079,0.0145069260364136
397,5.086,0.0162042043585547
398,5.094,0.0167005782074827
399,5.101,0.013314027593022
400,5.109,0.00790195143374184
401,5.116,0.0165684787154293
402,5.124,0.0218524583975667
403,5.131,0.0255312291005093
404,5.139,0.0102036850074002
405,5.146,0.0189542756022126
406,5.154,0.0227531367524765
407,5.162,0.0178814676061422
408,5.169,0.0168727078486433
409,5.177,0.0163883430444474
410,5.184,0.00811010820909877
411,5.192,0.0130017924299866
412,5.199,0.0293781264297018
413,5.207,0.0308152087826467
414,5.214,0.0127856296248082
415,5.222,0.0234376523022079
416,5.229,0.0129097230870402
417,5.237,0.0248907467147957
418,5.244,0.0137543592332001
419,5.252,0.0168046565951612
420,5.260,0.0208717197444427
421,5.267,0.0117848758971307
422,5.275,0.00680512534820726
423,5.282,0.0200831258070328
424,5.290,0.0243823638211355
425,5.297,0.0183978565296239
426,5.305,0.0243183155825642
427,5.312,0.0204554061937289
428,5.320,0.0211839549074781
429,5.327,0.0242622733738142
430,5.335,0.0202232313289077
431,5.342,0.0232535136163153
432,5.350,0.0391414797969239
433,5.357,0.060945902015562
434,5.365,0.0313556157955926
435,5.373,0.0223808563657805
436,5.380,0.00921093730954406
437,5.388,0.0261997325905979
438,5.395,0.0203193036867647
439,5.403,0.0152835109290914
440,5.410,0.023809932688904
441,5.418,0.0121891804031124
442,5.425,0.0244063819105998
443,5.433,0.0212800272653352
444,5.440,0.00811411122400947
445,5.448,0.0203353157464076
446,5.455,0.0242662763887249
447,5.463,0.0247746592823851
448,5.470,0.0420876987712065
449,5.478,0.0329928488940731
450,5.486,0.0240461105686359
451,5.493,0.0233776070785473
452,5.501,0.0133340426675755
453,5.508,0.0119610085532019
454,5.516,0.0100155433065968
455,5.523,0.0116527764050772
456,5.531,0.0189142454531055
457,5.538,0.0260075878748838
458,5.546,0.0131659160413257
459,5.553,0.0144308687531101
460,5.561,0.0154516375553412
461,5.568,0.00942309709981169
462,5.576,0.0106840467966854
463,5.584,0.0175852445027497
464,5.591,0.0115647100770416
465,5.599,0.0228892392594406
466,5.606,0
467,5.614,0.00995149506802543
468,5.621,0.0255312291005093
469,5.629,0.0211639398329246
470,5.636,0.014210702933021
471,5.644,0.0230253417664048
472,5.651,0.0179575248894457
473,5.659,0.0119129723742734
474,5.666,0.0160801108963227
475,5.674,0.008990771489455
476,5.681,0.00940708504016885
477,5.689,0.0173610756677499
478,5.697,0.0104438659020428
479,5.704,0.0167886445355184
480,5.712,0.0181256515156956
481,5.719,0.0385130064559424
482,5.727,0.0371960145503187
483,5.734,0.0542568640997654
484,5.742,0.0188942303785519
485,5.749,0.0145229380960564
486,5.757,0.0228932422743514
487,5.764,0.0147350978863241
488,5.772,0.0211679428478353
489,5.779,0.0326726077012163
490,5.787,0.0240421075537252
491,5.795,0.0226290432902445
492,5.802,0.0142347210224853
493,5.810,0.0232254925119403
494,5.817,0.0295462530559516
495,5.825,0.0206275358348894
496,5.832,0.0233615950189044
497,5.840,0.0181176454858741
498,5.847,0.0299265394724691
499,5.855,0.014514932066235
500,5.862,0.0118889542848091
501,5.870,0.0173730847124821
502,5.877,0.0194506494511406
503,5.885,0.0141986938882889
504,5.892,0.0200631107324793
505,5.900,0.0245304753728318
506,5.908,0.0170048073406967
507,5.915,0.019266510765248
508,5.923,0.0230693749304226
509,5.930,0.021696340816049
510,5.938,0.0280971616582745
511,5.945,0.0180415882025706
512,5.953,0.021696340816049
513,5.960,0.0183898504998024
514,5.968,0.0160280717024834
515,5.975,0.0199550293298901
516,5.983,0.014390838604003
517,5.990,0.0292980661314876
518,5.998,0.0188942303785519
519,6.006,0.0207316142225679
520,6.013,0.0242222432247071
521,6.021,0.0333411111913048
522,6.028,0.0412230475504931
523,6.036,0.0394096817959414
524,6.043,0.0337454156972866
525,6.051,0.019210468556498
526,6.058,0.0303868861872008
527,6.066,0.0123172768802551
528,6.073,0.0395698023923698
529,6.081,0.0362072698673733
530,6.088,0.02001107153864
531,6.096,0.028877749565863
532,6.103,0.0221927146649771
533,6.111,0.0241061557922965
534,6.119,0.0291139274455949
535,6.126,0.0453101257743282
536,6.134,0.0765776752418852
537,6.141,0.0709614453221588
538,6.149,0.0461147317713809
539,6.156,0.0404624747174582
540,6.164,0.042992380141027
541,6.171,0.027953053121489
542,6.179,0.0318279715550564
543,6.186,0.0326005534328235
544,6.194,0.0307511605440754
545,6.201,0.0326005534328235
546,6.209,0.0302467806653259
547,6.216,0.0353346126168385
548,6.224,0.0305430037687184
549,6.232,0.0217603890546204
550,6.239,0.0220325940685487
551,6.247,0.033697379518358
552,6.254,0.0411630023268325
553,6.262,0.0423358856956706
554,6.269,0.0232495106014046
555,6.277,0.0344139191873752
556,6.284,0.0293981415042553
557,6.292,0.0326085594626449
558,6.299,0.0255392351303308
559,6.307,0.0274806973620252
560,6.314,0.0257874220547948
561,6.322,0.0511024883501258
562,6.330,0.11431409680515
563,6.337,0.110535250729439
564,6.345,0.0675308615436802
565,6.352,0.0322122609864846
566,6.360,0.0281011646731853
567,6.367,0.0300786540390761
568,6.375,0.0264399134852405
569,6.382,0.011172414615792
570,6.390,0.0185980072751594
571,6.397,0.0291499545797913
572,6.405,0.0252310029822061
573,6.412,0.02976241586113
574,6.420,0.0261877235458658
575,6.427,0.0239300231362253
576,6.435,0.0309473082747002
577,6.443,0.0220486061281915
578,6.450,0.0153475591676627
579,6.458,0.0194426434213192
580,6.465,0.0231614442733689
581,6.473,0.0341417141734469
582,6.480,0.0347701875144284
583,6.488,0.0308232148124682
584,6.495,0.0398940466001374
585,6.503,0.0829304599051822
586,6.510,0.119530025233805
587,6.518,0.080240433885185
588,6.525,0.0443934353597756
589,6.533,0.0375002436835327
590,6.541,0.0201271589710506
591,6.548,0.0371800024906759
592,6.556,0.0372280386696044
593,6.563,0.047163521677987
594,6.571,0.0781508601017943
595,6.578,0.0563904710471739
596,6.586,0.0377764517123717
597,6.593,0.0384289431428174
598,6.601,0.0274927064067573
599,6.608,0.0187541248566771
600,6.616,0.0307311454695218
601,6.623,0.0169247470424825
602,6.631,0.0363473753892482
603,6.638,0.0218524583975667
604,6.646,0.0133740728166826
605,6.654,0.0220165820089058
606,6.661,0.0218164312633703
607,6.669,0.0283213304932743
608,6.676,0.0290538822219343
609,6.684,0.0121211291496303
610,6.691,0.0184899258725702
611,6.699,0.0304949675897899
612,6.706,0.0279930832705961
613,6.714,0.0440091459283474
614,6.721,0.0461587649353987
615,6.729,0.0387491843356743
616,6.736,0.0270843988858649
617,6.744,0.0431645097821876
618,6.752,0.0253350813698845
619,6.759,0.0278209536294355
620,6.767,0.0221967176798878
621,6.774,0.0325445112240735
622,6.782,0.0260636300836338
623,6.789,0.0187060886777485
624,6.797,0.027524730526043
625,6.804,0.023533724660065
626,6.812,0.0221206603965843
627,6.819,0.0355747935114811
628,6.827,0.0220365970834594
629,6.834,0.0192945318696229
630,6.842,0.0300426269048797
631,6.849,0.021572247353817
632,6.857,0.0234416553171186
633,6.865,0.0130057954448973
634,6.872,0.0345980578732678
635,6.880,0.0286375686712204
636,6.887,0.030839226872111
637,6.895,0.0289097736851487
638,6.902,0.0219205096510488
639,6.910,0.0222567629035484
640,6.917,0.0225209618876553
641,6.925,0.0163082827462332
642,6.932,0.0313396037359498
643,6.940,0.0275287335409537
644,6.947,0.0238699779125646
645,6.955,0.0323963996723773
646,6.962,0.0222007206947985
647,6.970,0.0251549456989026
648,6.978,0.0222047237097092
649,6.985,0.0219285156808702
650,6.993,0.0317519142717529
651,7.000,0.0298224610847906
652,7.008,0.0365195050304087
653,7.015,0.0335933011306796
654,7.023,0.0667062404720739
655,7.030,0.157906929182783
656,7.038,0.16352315910251
657,7.045,0.091689056529816
658,7.053,0.0609499050304727
659,7.060,0.0635238436180594
660,7.068,0.0575473423563691
661,7.076,0.0420036354580816
662,7.083,0.0448737971490608
663,7.091,0.0374361954449613
664,7.098,0.0215041961003349
665,7.106,0.031487715287646
666,7.113,0.0327926981485376
667,7.121,0.0330889212519301
668,7.128,0.0310914168114857
669,7.136,0.030811205767736
670,7.143,0.0422478193676349
671,7.151,0.025038858266492
672,7.158,0.0661378123547531
673,7.166,0.110351112043547
674,7.173,0.0959602734395437
675,7.181,0.0678390936918049
676,7.189,0.054469023890033
677,7.196,0.0464229639195056
678,7.204,0.062755264755203
679,7.211,0.0607697693594908
680,7.219,0.06296342153056
681,7.226,0.13979328671182
682,7.234,0.220478055252094
683,7.241,0.221058492414147
684,7.249,0.131471018712453
685,7.256,0.090127880714639
686,7.264,0.0878741833199092
687,7.271,0.083554930231253
688,7.279,0.0559541424219065
689,7.287,0.0558100338851209
690,7.294,0.0584720388007432
691,7.302,0.0525996159267314
692,7.309,0.053544327445659
693,7.317,0.0488567969852174
694,7.324,0.0493651798788776
695,7.332,0.0562663775849419
696,7.339,0.0473436573489689
697,7.347,0.0531560349993201
