#"+EI TIC Scan EA-PA.d "
#Point,X(Minutes),Y(Counts)
0,2.095,0.116938165286021
1,2.102,0.108686612036445
2,2.110,0.0896847957504501
3,2.117,0.0828460304472146
4,2.125,0.0772094060443354
5,2.132,0.0865032989869693
6,2.140,0.0883373810252773
7,2.148,0.067585015150244
8,2.155,0.0687544694400166
9,2.163,0.0581676394565161
10,2.170,0.0671019796827292
11,2.178,0.0623043116181652
12,2.185,0.0560974874528813
13,2.193,0.0456159809923728
14,2.200,0.039877664912122
15,2.208,0.0571507226828008
16,2.215,0.0461970762916387
17,2.223,0.0555962927572645
18,2.230,0.0519862382105751
19,2.238,0.0503519076813898
20,2.246,0.0461280712248508
21,2.253,0.0419768716807201
22,2.261,0.0433206545602725
23,2.268,0.0400229387369385
24,2.276,0.0309978023702151
25,2.283,0.0529922594474292
26,2.291,0.0468508085033128
27,2.298,0.0369903476438946
28,2.306,0.0517429045540075
29,2.313,0.0435022468412931
30,2.321,0.038210647772353
31,2.328,0.0391404002511784
32,2.336,0.0433097590234112
33,2.343,0.0425724943624676
34,2.351,0.0365399987869636
35,2.359,0.0368632330471802
36,2.366,0.0346587027555902
37,2.374,0.0329953174614416
38,2.381,0.0276092904063708
39,2.389,0.0399139833683262
40,2.396,0.0667896409593738
41,2.404,0.267144036455014
42,2.411,0.254385362790507
43,2.419,0.0741404964950874
44,2.426,0.0443738897901919
45,2.434,0.0289821280508865
46,2.441,0.0227208262012965
47,2.449,0.0425180166781615
48,2.456,0.038501195421986
49,2.464,0.031949345922763
50,2.472,0.0403425411515348
51,2.479,0.029207302479352
52,2.487,0.0387554246154148
53,2.494,0.0481110589335957
54,2.502,0.0285862568782616
55,2.509,0.0441777701266897
56,2.517,0.0371646762336744
57,2.524,0.0370520890194416
58,2.532,0.0337689005785893
59,2.539,0.03201108729831
60,2.547,0.0424816982219573
61,2.554,0.0401173667230692
62,2.562,0.029683074255626
63,2.570,0.0330134766895437
64,2.577,0.0326030781344371
65,2.585,0.0233418718023869
66,2.592,0.0367724369066699
67,2.600,0.0363329835866001
68,2.607,0.0344371601727451
69,2.615,0.0369031833490047
70,2.622,0.0346223842993861
71,2.630,0.0351490019143458
72,2.637,0.0338742241015813
73,2.645,0.0385593049519125
74,2.652,0.034894772720917
75,2.660,0.0343608914147165
76,2.667,0.0373353729778338
77,2.675,0.0388752755208884
78,2.683,0.0265996373238963
79,2.690,0.0300172040527039
80,2.698,0.031825863171669
81,2.705,0.0257897357505445
82,2.713,0.0308016827067128
83,2.720,0.0282848136917674
84,2.728,0.0470796147773987
85,2.735,0.0503555395270102
86,2.743,0.0327810385698373
87,2.750,0.0448932437139108
88,2.758,0.0413340350059072
89,2.765,0.039568958034387
90,2.773,0.0514015110656888
91,2.781,0.0520625069686038
92,2.788,0.0345315881588758
93,2.796,0.0344771104745696
94,2.803,0.0412432388653969
95,2.811,0.057019976240466
96,2.818,0.0453653836445643
97,2.826,0.0413158757778051
98,2.833,0.0285935205695024
99,2.841,0.0378365676734506
100,2.848,0.0456050854555115
101,2.856,0.037284527139148
102,2.863,0.0518482280769995
103,2.871,0.0322834757198409
104,2.878,0.0324251176990369
105,2.886,0.0476352871573217
106,2.894,0.0467672760540433
107,2.901,0.0362748740566735
108,2.909,0.0412105522548132
109,2.916,0.0362421874460898
110,2.924,0.0355230820132482
111,2.931,0.0517211134802851
112,2.939,0.0435058786869135
113,2.946,0.0359116894946323
114,2.954,0.0475299636343298
115,2.961,1.88079483667772
116,2.969,19.7075129448058
117,2.976,60.5912063574731
118,2.984,100
119,2.992,20.2923817316713
120,2.999,0.139586354574909
121,3.007,0.0717180554662727
122,3.014,0.0706393973170104
123,3.022,0.0538856934700505
124,3.029,0.0456849860591606
125,3.037,0.0611058025634293
126,3.044,0.0765520419870409
127,3.052,0.0604557021973756
128,3.059,0.0472575752127989
129,3.067,0.0417335380241525
130,3.074,0.0529305180718822
131,3.082,0.0458774738770424
132,3.089,0.0387082106223494
133,3.097,0.0423327925515205
134,3.105,0.033307656184797
135,3.112,0.0355666641606932
136,3.120,0.031473574146489
137,3.127,0.0549352968543496
138,3.135,0.0597874426032198
139,3.142,0.0334492981639931
140,3.150,0.0329226805490334
141,3.157,0.0322108388074326
142,3.165,0.049127975707311
143,3.172,0.0414429903745196
144,3.180,0.0342265131267612
145,3.187,0.040044729810661
146,3.195,0.0378184084453485
147,3.203,0.0140225559404101
148,3.210,0.0196846032626322
149,3.218,0.0186822138713985
150,3.225,0.0263417762848471
151,3.233,0.0236578423713628
152,3.240,0.0311793946512357
153,3.248,0.0287533217768006
154,3.255,0.0321055152844407
155,3.263,0.043545828988738
156,3.270,0.022760776503121
157,3.278,0.0278054100698731
158,3.285,0.0239520218666161
159,3.293,0.0217547552662669
160,3.300,0.0236723697538444
161,3.308,0.0468471766576924
162,3.316,0.0476062323923584
163,3.323,0.0317713854873628
164,3.331,0.0201894298038694
165,3.338,0.0266976971556475
166,3.346,0.0179957950491407
167,3.353,0.00448896118682904
168,3.361,0.00646831704995349
169,3.368,0.0104270287762024
170,3.376,0.0134886746342096
171,3.383,0.0182064420951246
172,3.391,0.0108773776331335
173,3.398,0.0214315210060503
174,3.406,0.0203637583936492
175,3.413,0.0150394727141254
176,3.421,0.020599828358976
177,3.429,0.0272642650724317
178,3.436,0.0321999432705714
179,3.444,0.0184679349797942
180,3.451,0.0299373034490548
181,3.459,0.0227280898925373
182,3.466,0.0256480937713484
183,3.474,0.0232183890512929
184,3.481,0.0248636151173395
185,3.489,0.0717870605330605
186,3.496,0.069745963294389
187,3.504,0.0149014625805498
188,3.511,0.0155878814028076
189,3.519,0.0157985284487915
190,3.527,0.0174510182060789
191,3.534,0.0142223074495328
192,3.542,0.0130710123878622
193,3.549,0.0133615600374952
194,3.557,0.00936289800942173
195,3.564,0.0214060980867074
196,3.572,0.0194013193042401
197,3.579,0.00628309292331249
198,3.587,0.0112369303495542
199,3.594,0.0102272772670798
200,3.602,0.0132780275882257
201,3.609,0.0161471856283511
202,3.617,0.0246820228363189
203,3.624,0.00313428277041542
204,3.632,0.0161217627090082
205,3.640,0.00962075904847098
206,3.647,0.0113858360199911
207,3.655,0.0208722167805069
208,3.662,0.0126860367520986
209,3.670,0.0158711653611998
210,3.677,0.0199243050735794
211,3.685,0.0183589796111819
212,3.692,0.00756876627293828
213,3.700,0.0135249930904137
214,3.707,0.0174038042130136
215,3.715,0.00811717496162047
216,3.722,0.0089524994543152
217,3.730,0.00895976314555602
218,3.738,0.0101401129721899
219,3.745,0.0116436970590404
220,3.753,0.0212499287250297
221,3.760,0.0134596198692463
222,3.768,0.0204581863797799
223,3.775,0.00987862008752022
224,3.783,0.0120686229966286
225,3.790,0.0190345028965785
226,3.798,0.00578553007331607
227,3.805,0.0127259870539231
228,3.813,0.0137247445995364
229,3.820,0.0110262833035704
230,3.828,0.0130492213141398
231,3.835,0.00695498436308868
232,3.843,0.012769569201368
233,3.851,0.00664264563973326
234,3.858,0.00926847002329103
235,3.866,0.00353741763428114
236,3.873,0.019550224974677
237,3.881,0.00772130378899558
238,3.888,0.0202148527232123
239,3.896,0.0201785342670082
240,3.903,0.0196628121889097
241,3.911,0.0137683267469813
242,3.918,0.0141569342283654
243,3.926,0.00769951271527311
244,3.933,0.00730000969702781
245,3.941,0.00679518315579056
246,3.949,0.00608697325981025
247,3.956,0.0150104179491622
248,3.964,0.0137719585926017
249,3.971,0.0637170995645054
250,3.979,0.0622897842356835
251,3.986,0.0241481415301183
252,3.994,0.0067770239276885
253,4.001,0.0145818601659536
254,4.009,0.0108882731699947
255,4.016,0.0100928989791245
256,4.024,0.0129911117842132
257,4.031,0.00671891439776191
258,4.039,0.0099040430068631
259,4.046,0.0104270287762024
260,4.054,0.0172912169987808
261,4.062,0.0197681357119017
262,4.069,0.00697677543681115
263,4.077,0.0192705728619052
264,4.084,0.022266845498745
265,4.092,0.00676249654520685
266,4.099,0.012337379572539
267,4.107,0.0237341111293914
268,4.114,0.00730364154264822
269,4.122,0.0093520024725605
270,4.129,0.00609423695105107
271,4.137,0.0164159422042615
272,4.144,0.0200550515159142
273,4.152,0.0190562939703009
274,4.159,0.0121921057477226
275,4.167,0.0136884261433322
276,4.175,0.0138845458068345
277,4.182,0.00920309680212361
278,4.190,0.0202439074881756
279,4.197,0.0200078375228488
280,4.205,0.00349746733245661
281,4.212,0.0103217052532105
282,4.220,0.00573831608025071
283,4.227,0.0154934534166769
284,4.235,0.0241481415301183
285,4.242,0.0159801207298121
286,4.250,0.0081861800284083
287,4.257,0.0144547455692391
288,4.265,0.0101510085090511
289,4.273,0.0150939503984316
290,4.280,0.0137610630557405
291,4.288,0.0106449395134271
292,4.295,0.0107248401170762
293,4.303,0.0197826630943833
294,4.310,0.0224012237867003
295,4.318,0.00893070838059272
296,4.325,0.0219290838560467
297,4.333,0.0101982225021165
298,4.340,0.00331950689705643
299,4.348,0.00825518509519612
300,4.355,0.00943553492182997
301,4.363,0.0142477303688757
302,4.370,0.0147816116750762
303,4.378,0.0122465834320287
304,4.386,0.011454841086779
305,4.393,0.0141278794634021
306,4.401,0.00292363572443153
307,4.408,0.0189800252122723
308,4.416,0.0566749509065268
309,4.423,0.117304981693682
310,4.431,0.0523239998532734
311,4.438,0.0199279369191998
312,4.446,0.0108047407207252
313,4.453,0.0296867061012464
314,4.461,0.0201785342670082
315,4.468,0.0227099306644353
316,4.476,0.0128276787312946
317,4.484,0.0151520599283582
318,4.491,0.0225682886852392
319,4.499,0.0165140020360127
320,4.506,0.00869827026088637
321,4.514,0.002698461295966
322,4.521,0.0146690244608434
323,4.529,0.0173166399181237
324,4.536,0.010979069310505
325,4.544,0.00484851390324981
326,4.551,0.0133361371181523
327,4.559,0.0311866583424765
328,4.566,0.0120323045404244
329,4.574,0.0016851763678711
330,4.581,0.00887259885066614
331,4.589,0.0168590273699518
332,4.597,0.011226034812693
333,4.604,0.00700946204739486
334,4.612,0.0140516107053734
335,4.619,0.0117962345750977
336,4.627,0.0151520599283582
337,4.634,0.0168844502892947
338,4.642,0.0157731055294486
339,4.649,0.0155261400272606
340,4.657,0.00426741860398392
341,4.664,0.0113858360199911
342,4.672,0.00950090814299738
343,4.679,0.0160709168703224
344,4.687,0.00771767194337517
345,4.695,0.0217220686556832
346,4.702,0.00428194598646556
347,4.710,0.0103217052532105
348,4.717,0.00407493078610209
349,4.725,0.00942463938496873
350,4.732,0.0126569819871353
351,4.740,0.0172258437776134
352,4.747,0.0093846890831442
353,4.755,0.00762687580286487
354,4.762,0.0212245058056868
355,4.770,0.00860021042913525
356,4.777,0.011040810686052
357,4.785,0.016067285024702
358,4.792,0.0156169361677709
359,4.800,0.0105686707553985
360,4.808,0.00999483914737339
361,4.815,0.0186676864889169
362,4.823,0.0158312150593752
363,4.830,0.00986046085941816
364,4.838,0.0157622099925874
365,4.845,0.0208358983243027
366,4.853,0.0162670365338246
367,4.860,0.0229750553947253
368,4.868,0.0109609100824029
369,4.875,0.0183735069936635
370,4.883,0.00975876918204662
371,4.890,0.017716142936369
372,4.898,0.0227280898925373
373,4.905,0.0349129319490191
374,4.913,0.0288622771454129
375,4.921,0.0190780850440234
376,4.928,0.0165466886465964
377,4.936,0.0135613115466178
378,4.943,0.0118507122594038
379,4.951,0.0102200135758389
380,4.958,0.00872006133460884
381,4.966,0.0113386220269258
382,4.973,0.00877817086453543
383,4.981,0.0115674283010117
384,4.988,0.0123010611163349
385,4.996,0.00667896409593738
386,5.003,0.0149377810367539
387,5.011,0.00309433246859089
388,5.019,0.015141164391497
389,5.026,0.0173347991462257
390,5.034,0.0139608145648631
391,5.041,0.0222377907337817
392,5.049,0.00909777327913167
393,5.056,0.00898155421927849
394,5.064,0.0120758866878694
395,5.071,0.0203928131586125
396,5.079,0.019241518096942
397,5.086,0.0113604131006482
398,5.094,0.0141496705371245
399,5.101,0.00651553104301885
400,5.109,0.00920672864774402
401,5.116,0.0142368348320144
402,5.124,0
403,5.132,0.00641383936564732
404,5.139,0.0129475296367682
405,5.147,0.0130891716159643
406,5.154,0.0174764411254218
407,5.162,0.00227716720399823
408,5.169,0.00694408882622745
409,5.177,0.0132126543670583
410,5.184,0.00859657858351483
411,5.192,0.0189945525947539
412,5.199,0.0124862852429759
413,5.207,0.0141133520809204
414,5.214,0.0160890760984245
415,5.222,0.0131581766827521
416,5.230,0.010793845183864
417,5.237,0.0195320657465749
418,5.245,0.00461607578354345
419,5.252,0.0230004783140682
420,5.260,0.0104996656886106
421,5.267,0.00662811825725162
422,5.275,0.0122865337338533
423,5.282,0.00916314650029908
424,5.290,0.0150830548615704
425,5.297,0.0134886746342096
426,5.305,0.0157513144557262
427,5.312,0.0112441940407951
428,5.320,0.0104088695481003
429,5.327,0.0121557872915184
430,5.335,0.00652279473425967
431,5.343,0.00378075129084873
432,5.350,0.00842588183935548
433,5.358,0.01728395330754
434,5.365,0.0116509607502812
435,5.373,0.00178686804524263
436,5.380,0.013245340977642
437,5.388,0.016975246429805
438,5.395,0.00829876724264106
439,5.403,0.0055494601079893
440,5.410,0.0203020170181022
441,5.418,0.00455433440799645
442,5.425,0.00586543067696513
443,5.433,0.0180611682703081
444,5.441,0.0103834466287575
445,5.448,0.0131799677564746
446,5.456,0.0185623629659249
447,5.463,0.0158021602944119
448,5.471,0.0178033072312589
449,5.478,0.0200259967509509
450,5.486,0.0146908155345659
451,5.493,0.011454841086779
452,5.501,0.000319602414596242
453,5.508,0.0109827011561254
454,5.516,0.0193795282305176
455,5.523,0.0131436493002705
456,5.531,0.0196991306451138
457,5.538,0.0175272869641076
458,5.546,0.0157513144557262
459,5.554,0.0149196218086519
460,5.561,0.0153663388199625
461,5.569,0.0154643986517136
462,5.576,0.0133724555743564
463,5.584,0.00394418434376726
464,5.591,0.0224266467060431
465,5.599,0.0066244864116312
466,5.606,0.00897065868241725
467,5.614,0.019074453198403
468,5.621,0.0119088217893304
469,5.629,0.0153808662024442
470,5.636,0.0177996753856384
471,5.644,0.00562936071163836
472,5.652,0.0214460483885319
473,5.659,0.0198625636980324
474,5.667,0.0164595243517065
475,5.674,0.00982051055759363
476,5.682,0.00976240102766704
477,5.689,0.0131291219177888
478,5.697,0.00538239520945035
479,5.704,0.00824428955833489
480,5.712,0.0110698654510153
481,5.719,0.0132780275882257
482,5.727,0.0332786014198337
483,5.734,0.0218128647961935
484,5.742,0.0189582341385498
485,5.749,0.0281141169476081
486,5.757,0.0204690819166412
487,5.765,0.0106630987415292
488,5.772,0.0188093284681129
489,5.780,0.0214751031534952
490,5.787,0.0109572782367825
491,5.795,0.0215223171465606
492,5.802,0.00994762515430804
493,5.810,0.0149958905666805
494,5.817,0.0202257482600736
495,5.825,0.0199751509122651
496,5.832,0.0109536463911621
497,5.840,0.0154825578798157
498,5.847,0.0194303740692034
499,5.855,0.0119996179298407
500,5.862,0.0154280801955095
501,5.870,0.015573354020326
502,5.878,0.00767045795030981
503,5.885,0.0152355923776277
504,5.893,0.00167791267663027
505,5.900,0.00799732405614688
506,5.908,0.0229314732472804
507,5.915,0.0124681260148739
508,5.923,0.0182064420951246
509,5.930,0.016129026400249
510,5.938,0.0170914654896581
511,5.945,0.0137065853714343
512,5.953,0.0178505212243242
513,5.960,0.0123954891024656
514,5.968,0.0166592758608291
515,5.976,0.0168953458261559
516,5.983,0.0259059548103977
517,5.991,0.0194231103779625
518,5.998,0.0134777790973484
519,6.006,0.0164558925060861
520,6.013,0.0145673327834719
521,6.021,0.019877091080514
522,6.028,0.02795431574031
523,6.036,0.0269664537315579
524,6.043,0.0210065950684621
525,6.051,0.030485712137737
526,6.058,0.0120068816210816
527,6.066,0.0139717101017244
528,6.073,0.028509988120233
529,6.081,0.024471375790335
530,6.089,0.0193940556129992
531,6.096,0.0241263504563959
532,6.104,0.0202221164144531
533,6.111,0.0192233588688399
534,6.119,0.0129293704086662
535,6.126,0.0245512763939841
536,6.134,0.0392820422303745
537,6.141,0.055865049333175
538,6.149,0.0475917050098768
539,6.156,0.0513906155288276
540,6.164,0.0310668074370029
541,6.171,0.0239847084771998
542,6.179,0.0219254520104263
543,6.187,0.0176907200170261
544,6.194,0.0115601646097709
545,6.202,0.0190998761177459
546,6.209,0.0304748166008758
547,6.217,0.0181919147126429
548,6.224,0.0295486959676708
549,6.232,0.0181301733370959
550,6.239,0.0201022655089796
551,6.247,0.0231348566020234
552,6.254,0.0186495272608148
553,6.262,0.0298319799260629
554,6.269,0.0229351050929008
555,6.277,0.0162561409969634
556,6.284,0.0153590751287217
557,6.292,0.0219908252315937
558,6.300,0.0219762978491121
559,6.307,0.0187403234013251
560,6.315,0.0140625062422347
561,6.322,0.0173311673006053
562,6.330,0.0158929564349222
563,6.337,0.01569683677142
564,6.345,0.0214460483885319
565,6.352,0.012954793328009
566,6.360,0.021032017987805
567,6.367,0.0172258437776134
568,6.375,0.0167537038469598
569,6.382,0.0146799199977047
570,6.390,0.0193250505462114
571,6.398,0.0206543060432822
572,6.405,0.023378190258591
573,6.413,0.0161798722389348
574,6.420,0.0296649150275239
575,6.428,0.0296721787187648
576,6.435,0.0217220686556832
577,6.443,0.0227062988188148
578,6.450,0.0105831981378801
579,6.458,0.0237704295855955
580,6.465,0.00614145094411643
581,6.473,0.0123736980287432
582,6.480,0.0204545545341595
583,6.488,0.0177815161575364
584,6.495,0.0203455991655472
585,6.503,0.0238358028067629
586,6.511,0.0130637486966214
587,6.518,0.0164159422042615
588,6.526,0.0115420053816688
589,6.533,0.0291092426476009
590,6.541,0.0155588266378443
591,6.548,0.0205961965133556
592,6.556,0.0327410882680128
593,6.563,0.0231058018370602
594,6.571,0.0160527576422204
595,6.578,0.0133252415812911
596,6.586,0.0182827108531532
597,6.593,0.0238466983436242
598,6.601,0.0211809236582419
599,6.608,0.0239956040140611
600,6.616,0.0169716145841845
601,6.624,0.0225719205308596
602,6.631,0.0190962442721255
603,6.639,0.0192742047075257
604,6.646,0.0263272489023655
605,6.654,0.0113967315568524
606,6.661,0.0270390906439662
607,6.669,0.0275911311782688
608,6.676,0.0237559022031139
609,6.684,0.0189473386016886
610,6.691,0.0333003924935562
611,6.699,0.0191906722582562
612,6.706,0.0214968942272177
613,6.714,0.0265342641027289
614,6.722,0.0248672469629599
615,6.729,0.0179340536735937
616,6.737,0.0226082389870637
617,6.744,0.0250778940089438
618,6.752,0.0260112783333896
619,6.759,0.0289494414403028
620,6.767,0.0221760493582347
621,6.774,0.027522126111481
622,6.782,0.0184388802148309
623,6.789,0.0259168503472589
624,6.797,0.0233491354936277
625,6.804,0.0162597728425838
626,6.812,0.0185841540396474
627,6.819,0.0110262833035704
628,6.827,0.0252304315250011
629,6.835,0.0277945145330118
630,6.842,0.0147126066082884
631,6.850,0.0190490302790601
632,6.857,0.0265596870220718
633,6.865,0.0153663388199625
634,6.872,0.0278199374523547
635,6.880,0.0361622868424407
636,6.887,0.01472713399077
637,6.895,0.0290257101983315
638,6.902,0.02539749642354
639,6.910,0.0212426650337889
640,6.917,0.036500048485139
641,6.925,0.0233091851918032
642,6.933,0.0223758008673574
643,6.940,0.0224702288534881
644,6.948,0.0283756098322777
645,6.955,0.0428848330858231
646,6.963,0.0330570588369886
647,6.970,0.0245294853202616
648,6.978,0.0314663104552482
649,6.985,0.0291056108019805
650,6.993,0.014832457513762
651,7.000,0.0295995418063565
652,7.008,0.0270972001738928
653,7.015,0.0333330791041399
654,7.023,0.0423691110077246
655,7.030,0.0850505607388046
656,7.038,0.120312149867383
657,7.046,0.0686019319239593
658,7.053,0.0517683274733504
659,7.061,0.0485868307098696
660,7.068,0.0409272682964211
661,7.076,0.041878811848969
662,7.083,0.0415374183606503
663,7.091,0.0300135722070835
664,7.098,0.0356429329187218
665,7.106,0.0228951547910763
666,7.113,0.0401863717898571
667,7.121,0.0397905006172322
668,7.128,0.0263889902779125
669,7.136,0.0254120238060217
670,7.144,0.0330752180650907
671,7.151,0.0418388615471444
672,7.159,0.0493822049007398
673,7.166,0.0680099410878322
674,7.174,0.0747143281031125
675,7.181,0.0643199859374938
676,7.189,0.0421185136599162
677,7.196,0.0496001156379645
678,7.204,0.0547972867207739
679,7.211,0.0456341402204748
680,7.219,0.0624459535973612
681,7.226,0.0785096067764428
682,7.234,0.133277838732253
683,7.241,0.143697603817215
684,7.249,0.111188953668909
685,7.257,0.0846074755731143
686,7.264,0.071747110231236
687,7.272,0.0652969524093845
688,7.279,0.0683295435024284
689,7.287,0.0632958054725376
690,7.294,0.0602377914601508
691,7.302,0.0520879298879467
