#"+EI TIC Scan EA-SLA.d "
#Point,X(Minutes),Y(Counts)
0,2.095,0.106863852901997
1,2.102,0.0935888401191402
2,2.110,0.0858199405928093
3,2.117,0.0898401575321631
4,2.125,0.0786808499115741
5,2.132,0.0870531591098531
6,2.140,0.0814791622652331
7,2.147,0.0759391072146602
8,2.155,0.0662166688753975
9,2.162,0.065549146925805
10,2.170,0.0511351983871463
11,2.178,0.0747549157334622
12,2.185,0.0583082308624286
13,2.193,0.0558945921746364
14,2.200,0.0618985184105194
15,2.208,0.0539410533617046
16,2.215,0.0585345094894091
17,2.223,0.0559285339686835
18,2.230,0.0457799375486075
19,2.238,0.0454857753335328
20,2.245,0.0419181156481401
21,2.253,0.0515575851575099
22,2.260,0.0443317543359322
23,2.268,0.046900016752161
24,2.275,0.0429250555382033
25,2.283,0.0466284823997844
26,2.291,0.0398740653844161
27,2.298,0.0424800409051417
28,2.306,0.0310114858276793
29,2.313,0.0483293434125879
30,2.321,0.0348431372445493
31,2.328,0.0376980192549535
32,2.336,0.0493664537862486
33,2.343,0.0250188735231454
34,2.351,0.0339304801157279
35,2.358,0.0235782329313695
36,2.366,0.0240496467375789
37,2.373,0.0382938863060022
38,2.381,0.0415598411554209
39,2.388,0.0332403303034374
40,2.396,0.0692902868918828
41,2.404,0.285163868341742
42,2.411,0.237090974039732
43,2.419,0.0546048040008475
44,2.426,0.0335722056230088
45,2.434,0.0301931114600998
46,2.441,0.0403794209846726
47,2.449,0.0317996897116614
48,2.456,0.0366458236394941
49,2.464,0.0358161353405656
50,2.471,0.0209835713419929
51,2.479,0.0338097981813383
52,2.486,0.0676007398104283
53,2.494,0.562275988873427
54,2.502,0.555774249658187
55,2.509,0.367616028702991
56,2.517,0.283530890917033
57,2.524,0.224702219212549
58,2.532,0.18787537267147
59,2.539,0.154597329263536
60,2.547,0.141620250006204
61,2.554,0.123853606477784
62,2.562,0.106320784197244
63,2.569,0.0852881858194051
64,2.577,0.0846206638698126
65,2.584,0.074803942769308
66,2.592,0.0770177020032673
67,2.599,0.0691394344738958
68,2.607,0.06862653625274
69,2.615,0.0584439980386169
70,2.622,0.060578559753133
71,2.630,0.0570109000677403
72,2.637,0.0473450313852227
73,2.645,0.0553741513325812
74,2.652,0.206498103671967
75,2.660,0.238682467049495
76,2.667,0.106169931779257
77,2.675,0.0854126390642443
78,2.682,0.140304062659267
79,2.690,0.152176147954845
80,2.697,0.0821957112506714
81,2.705,0.0669294465503861
82,2.713,0.0627018075363002
83,2.720,0.0531151363732258
84,2.728,0.0688754427424185
85,2.735,0.0691960041306409
86,2.743,0.0640406227459349
87,2.750,0.053948595982604
88,2.758,0.0587306176327922
89,2.765,0.0560115027985763
90,2.773,0.0654020658182676
91,2.780,0.0494117095116447
92,2.788,0.0456781121664663
93,2.795,0.040560443886257
94,2.803,0.0373699152458317
95,2.810,0.0593679690987873
96,2.818,0.0492042874369126
97,2.826,0.0421293090333219
98,2.833,0.0345263471667766
99,2.841,0.0444524362703218
100,2.848,0.0464436881877503
101,2.856,0.052915256919393
102,2.863,0.0422537622781611
103,2.871,0.040420905399619
104,2.878,0.0388935246675005
105,2.886,0.0487630441143006
106,2.893,0.0472092642090344
107,2.901,0.0460740997636821
108,2.908,0.0393234540587635
109,2.916,0.0377168758072019
110,2.924,0.0407904938236872
111,2.931,0.0449691058019273
112,2.939,0.0346508004116159
113,2.946,0.0379582396759811
114,2.954,0.0703047694028454
115,2.961,1.9095464765363
116,2.969,19.9360936359061
117,2.976,60.2435165327839
118,2.984,100
119,2.991,22.0050345485979
120,2.999,0.148962991451721
121,3.006,0.0846206638698126
122,3.014,0.0626414665691054
123,3.021,0.0545369204127533
124,3.029,0.0476241083584987
125,3.037,0.0519309448920278
126,3.044,0.0845867220757655
127,3.052,0.0522552775906998
128,3.059,0.0531415355463735
129,3.067,0.05411076233194
130,3.074,0.0460401579696351
131,3.082,0.0394290507513544
132,3.089,0.0541560180573361
133,3.097,0.0409564314834729
134,3.104,0.0249811604186486
135,3.112,0.0414240739792326
136,3.119,0.0479936967825668
137,3.127,0.0513690196350262
138,3.134,0.0685247108705987
139,3.142,0.039700585103731
140,3.150,0.03367403100515
141,3.157,0.0433738414817147
142,3.165,0.0499585495268476
143,3.172,0.0349223347639925
144,3.180,0.0303024794631404
145,3.187,0.0412355084567488
146,3.195,0.0351033576655769
147,3.202,0.02426838274366
148,3.210,0.0236197173463159
149,3.217,0.0292050281222849
150,3.225,0.0170274666802836
151,3.232,0.0201878248371114
152,3.240,0.015722593264696
153,3.248,0.0262181502461421
154,3.255,0.031177423487465
155,3.263,0.0614987595028538
156,3.270,0.034092646465064
157,3.278,0.0237253140389068
158,3.285,0.0338286547335867
159,3.293,0.0205460993298306
160,3.300,0.019124315290303
161,3.308,0.0349185634535428
162,3.315,0.0498076971088606
163,3.323,0.0271270360645138
164,3.330,0.0161110382410125
165,3.338,0.0272250901362054
166,3.345,0.0351109002864763
167,3.353,0.00321692781357296
168,3.361,0.0187509555557852
169,3.368,0.0151946098017415
170,3.376,0.0151267262136473
171,3.383,0.033372326169176
172,3.391,0.0221866193754393
173,3.398,0.0185133629974556
174,3.406,0.022190390685889
175,3.413,0.012807370287097
176,3.421,0.0136634577591733
177,3.428,0.00356011706449341
178,3.436,0.028088720229181
179,3.443,0.0219452555066601
180,3.451,0.026915842679332
181,3.459,0.0126829170422578
182,3.466,0.016627707772618
183,3.474,0.0256524536786908
184,3.481,0.0281980882322216
185,3.489,0.0638746850861492
186,3.496,0.0807249001752981
187,3.504,0.019252539845592
188,3.511,0.0162581193485499
189,3.519,0.00875698286414586
190,3.526,0.0198634921384394
191,3.534,0.0115213534237578
192,3.541,0.00881355252089099
193,3.549,0.0221828480649896
194,3.556,0.00988837599904842
195,3.564,0.0137992249353616
196,3.572,0.0226240913876016
197,3.579,0.0155113998795142
198,3.587,0.0123887548271831
199,3.594,0
200,3.602,0.0129582227050841
201,3.609,0.0144554329536051
202,3.617,0.00988460468859875
203,3.624,0.0136370585860256
204,3.632,0.0117928877761344
205,3.639,0.00662619246007936
206,3.647,0.0204782157417364
207,3.654,0.00891914921348189
208,3.662,0.0132222144365613
209,3.670,0.0174121403461505
210,3.677,0.0240421041166795
211,3.685,0.017627105041782
212,3.692,0.0117853451552351
213,3.700,0.0240534180480285
214,3.707,0.0187962112811813
215,3.715,0.017777957459769
216,3.722,0.00282471152680674
217,3.730,0.0194599619203241
218,3.737,0.00742571027541051
219,3.745,0.00709383495583909
220,3.752,0.0173291715162576
221,3.760,0.0120380229553633
222,3.767,0.0123397277913373
223,3.775,0.0180872049166423
224,3.783,0.0132976406455548
225,3.790,0.023653659140363
226,3.798,0.0113365592117237
227,3.805,0.0130939898812724
228,3.813,0.0169595830921895
229,3.820,0.00735405537686668
230,3.828,0.0116043222536506
231,3.835,0.0130110210513795
232,3.843,0.00360160147943983
233,3.850,0.012924280911037
234,3.858,0.012924280911037
235,3.865,0.0118343721910808
236,3.873,0.0162468054172008
237,3.881,0.0197993798607949
238,3.888,0.0157489924378437
239,3.896,0.00834968133558093
240,3.903,0.0155905973989574
241,3.911,0.0113855862475695
242,3.918,0.019693783168204
243,3.926,0.0105257274650435
244,3.933,0.0165183397695775
245,3.941,0.00622266224196411
246,3.948,0.00798386422196244
247,3.956,0.00324709829717036
248,3.963,0.0280811776082817
249,3.971,0.0694939376561653
250,3.978,0.0579725842324075
251,3.986,0.0157791629214411
252,3.994,0.0125245220033714
253,4.001,0.0313320472159017
254,4.009,0.0616646971626395
255,4.016,0.0498076971088606
256,4.024,0.0309850866545316
257,4.031,0.0274702253154343
258,4.039,0.0202934215297024
259,4.046,0.0120455655762626
260,4.054,0.0126753744213584
261,4.061,0.0216284654288874
262,4.069,0.0117099189462416
263,4.076,0.0209760287210936
264,4.084,0.0146628550283372
265,4.091,0.014851420550821
266,4.099,0.0153152917361311
267,4.107,0.0207120369896163
268,4.114,0.0195052176457202
269,4.122,0.0222733595157818
270,4.129,0.0126150334541636
271,4.137,0.0223487857247753
272,4.144,0.0260974683117525
273,4.152,0.0178194418747154
274,4.159,0.0172235748236667
275,4.167,0.031445186529392
276,4.174,0.0163825725933891
277,4.182,0.0173857411730028
278,4.189,0.021168365554027
279,4.197,0.0118079730179331
280,4.205,0.0139387634219996
281,4.212,0.0127922850452983
282,4.220,0.0119399688836717
283,4.227,0.015292663873433
284,4.235,0.0115213534237578
285,4.242,0.0158244186468372
286,4.250,0.01997286014148
287,4.257,0.0102277939395192
288,4.265,0.0102919062171637
289,4.272,0.0239138795613906
290,4.280,0.0187924399707316
291,4.287,0.0208930598912007
292,4.295,0.00374491127652749
293,4.302,0.00901343197472377
294,4.310,0.0123020146868406
295,4.318,0.00545331491023037
296,4.325,0.0205800411238777
297,4.333,0.0185171343079053
298,4.340,0.015420888428722
299,4.348,0.0181286893315888
300,4.355,0.0224430684860172
301,4.363,0.0119965385404169
302,4.370,0.00852693292671567
303,4.378,0.0153228343570304
304,4.385,0.0180645770539443
305,4.393,0.0311849661083644
306,4.400,0.0286242463130349
307,4.408,0.00937547777789259
308,4.416,0.0653153256779251
309,4.423,0.144592042640548
310,4.431,0.0665787146785663
311,4.438,0.0257806782339798
312,4.446,0.0177817287702187
313,4.453,0.013829395418959
314,4.461,0.0254488029144084
315,4.468,0.0167031339816115
316,4.476,0.0129959358095808
317,4.483,0.0157942481632398
318,4.491,0.0218773719185659
319,4.498,0.0252828652546227
320,4.506,0.0178722402210109
321,4.513,0.0228805404981796
322,4.521,0.0190375751499605
323,4.529,0.0245663162691844
324,4.536,0.0234764075492282
325,4.544,0.0218019457095724
326,4.551,0.0130034784304802
327,4.559,0.0210816254136845
328,4.566,0.0186038744482479
329,4.574,0.021157051622678
330,4.581,0.012935594842386
331,4.589,0.0174423108297479
332,4.596,0.0131958152634136
333,4.604,0.0115628378387042
334,4.611,0.00366571375708431
335,4.619,0.0038957636945145
336,4.627,0.0196372135114589
337,4.634,0.0244230064720967
338,4.642,0.0116533492894964
339,4.649,0.0194486479889751
340,4.657,0.0182116581614816
341,4.664,0.024547459716936
342,4.672,0.0167710175697057
343,4.679,0.0112460477609315
344,4.687,0.015432202360071
345,4.694,0.00361668672123853
346,4.702,0.0254865160189051
347,4.709,0.0139651625951473
348,4.717,0.0174272255879492
349,4.724,0.0129431374632853
350,4.732,0.0275607367662265
351,4.740,0.0256373684368921
352,4.747,0.0175139657282917
353,4.755,0.0165824520472219
354,4.762,0.0233896674088857
355,4.770,0.0189998620454638
356,4.777,0.0211834507958257
357,4.785,0.0221564488918419
358,4.792,0.0236272599672152
359,4.800,0.0185887892064492
360,4.807,0.0100316857961361
361,4.815,0.0238497672837461
362,4.822,0.0112271912086831
363,4.830,0.0153077491152317
364,4.837,0.0182795417495758
365,4.845,0.0227221454592932
366,4.853,0.108149869765336
367,4.860,0.290010002269575
368,4.868,0.16941480802031
369,4.875,0.0708780085911961
370,4.883,0.0598544681467954
371,4.890,0.0421029098601741
372,4.898,0.039851437521718
373,4.905,0.0450030475959744
374,4.913,0.026602823912009
375,4.920,0.0375961938728123
376,4.928,0.0251131562843873
377,4.935,0.0215756670825919
378,4.943,0.0219603407484588
379,4.951,0.0188263817647787
380,4.958,0.0211947647271747
381,4.966,0.0322937313805689
382,4.973,0.0258033060966778
383,4.981,0.0147533664791295
384,4.988,0.0267763041926941
385,4.996,0.0152474081480369
386,5.003,0.0179589803613534
387,5.011,0.0536959181824758
388,5.018,0.294524260877836
389,5.026,0.431984755458048
390,5.033,0.166480728490463
391,5.041,0.0823616489104571
392,5.048,0.0659225066603228
393,5.056,0.043207903821929
394,5.064,0.0373623726249324
395,5.071,0.0334703802408676
396,5.079,0.0234009813402347
397,5.086,0.0270780090286681
398,5.094,0.0257618216817314
399,5.101,0.0278134145663547
400,5.109,0.0311133112098206
401,5.116,0.0313320472159017
402,5.124,0.0286845872802297
403,5.131,0.0245022039915399
404,5.139,0.0290956601192443
405,5.146,0.0599148091139902
406,5.154,0.246707815686404
407,5.162,0.266974838042958
408,5.169,0.102055432078661
409,5.177,0.052183622692156
410,5.184,0.0614987595028538
411,5.192,0.0562415527360065
412,5.199,0.0534922674181933
413,5.207,0.061740123371633
414,5.214,0.0308191489947459
415,5.222,0.0280736349873823
416,5.229,0.0476542788420961
417,5.237,0.0500716888403379
418,5.244,0.320342652216312
419,5.252,1.12466511706034
420,5.259,0.632712754142011
421,5.267,0.213931356568276
422,5.275,0.130144152307842
423,5.282,0.107323952776857
424,5.290,0.0799442389122153
425,5.297,0.0763162382596277
426,5.305,0.074513551864683
427,5.312,0.076429377573118
428,5.320,0.0542050450931819
429,5.327,0.0471979502776854
430,5.335,0.0502112273269759
431,5.342,0.0498982085596528
432,5.350,0.0468396757849662
433,5.357,0.0527606331909563
434,5.365,0.0336853449364991
435,5.373,0.0366759941230915
436,5.380,0.0396138449633885
437,5.388,0.0494381086847924
438,5.395,0.0381392625775655
439,5.403,0.0505506452674466
440,5.410,0.0365741687409503
441,5.418,0.034975133110288
442,5.425,0.0274136556586892
443,5.433,0.023385896098436
444,5.440,0.031177423487465
445,5.448,0.0304797310542751
446,5.455,0.0317431200549163
447,5.463,0.0375697946996645
448,5.470,0.0366646801917425
449,5.478,0.034545203719025
450,5.486,0.0266669361896535
451,5.493,0.0215379539780952
452,5.501,0.0260899256908532
453,5.508,0.0302119680123482
454,5.516,0.0342887546084471
455,5.523,0.0281151194023288
456,5.531,0.0394403646827034
457,5.538,0.0233821247879864
458,5.546,0.0266593935687541
459,5.553,0.0330781639541013
460,5.561,0.0329650246406111
461,5.568,0.0322069912402264
462,5.576,0.0323465297268644
463,5.583,0.0555664881655147
464,5.591,0.0443506108881806
465,5.599,0.0400890300800476
466,5.606,0.0399721194561076
467,5.614,0.328741360587739
468,5.621,3.30607404998238
469,5.629,4.62271018286255
470,5.636,1.36265743429755
471,5.644,0.532343097834355
472,5.651,0.350731871819795
473,5.659,0.248763179881477
474,5.666,0.200101961149317
475,5.674,0.171828446708102
476,5.681,0.140681193704235
477,5.689,0.130988925848569
478,5.697,0.113886032959292
479,5.704,0.111449766408802
480,5.712,0.102277939395192
481,5.719,0.0784809704577413
482,5.727,0.0976165996793934
483,5.734,0.110838814115955
484,5.742,0.0688867566737675
485,5.749,0.0540051656393491
486,5.757,0.0466020832266367
487,5.764,0.0641801612325729
488,5.772,0.0581724636862402
489,5.779,0.0636823482532157
490,5.787,0.0332931286497328
491,5.794,0.050429963333057
492,5.802,0.0486159630067632
493,5.810,0.0550121055294124
494,5.817,0.0351787838745704
495,5.825,0.0413297912179907
496,5.832,0.0397609260709258
497,5.840,0.0403643357428739
498,5.847,0.043520922589252
499,5.855,0.0476014804958006
500,5.862,0.0452368688438542
501,5.870,0.0393159114378642
502,5.877,0.0401644562890411
503,5.885,0.0358387632032636
504,5.892,0.0433512136190166
505,5.900,0.0370267259949113
506,5.908,0.0334213532050218
507,5.915,0.0305136728483222
508,5.923,0.045553658921627
509,5.930,0.0472205781403834
510,5.938,0.0329574820197117
511,5.945,0.0376263643564097
512,5.953,0.0321655068252799
513,5.960,0.033941794047077
514,5.968,0.0289033232863109
515,5.975,0.0243702081258013
516,5.983,0.0316111241891777
517,5.990,0.027764387530509
518,5.998,0.0354239190537993
519,6.005,0.0212701909361682
520,6.013,0.0323088166223676
521,6.021,0.036031100036197
522,6.028,0.0505996723032924
523,6.036,0.0520252276532696
524,6.043,0.0349261060744422
525,6.051,0.03762259304596
526,6.058,0.0497963831775116
527,6.066,0.0356539689912295
528,6.073,0.030260995048194
529,6.081,0.0356501976807798
530,6.088,0.0285978471398872
531,6.096,0.0349110208326435
532,6.103,0.0288014979041696
533,6.111,0.026625451774707
534,6.119,0.0323314444850656
535,6.126,0.0309850866545316
536,6.134,0.0713418797765061
537,6.141,0.079239003858126
538,6.149,0.0589380397075243
539,6.156,0.0300573442839115
540,6.164,0.0298159804151323
541,6.171,0.041163853558205
542,6.179,0.0462739792175149
543,6.186,0.0473940584210685
544,6.194,0.0383052002373512
545,6.201,0.034533889787676
546,6.209,0.0453877212618413
547,6.216,0.0331837606466922
548,6.224,0.0409338036207748
549,6.232,0.039410194199106
550,6.239,0.0432757874100231
551,6.247,0.0464248316355019
552,6.254,0.0418464607495962
553,6.262,0.0256185118846438
554,6.269,0.0369626137172668
555,6.277,0.0386898739032181
556,6.284,0.0480389525079629
557,6.292,0.0425177540096384
558,6.299,0.0475713100122032
559,6.307,0.0493287406817519
560,6.314,0.0541333901946381
561,6.322,0.0513841048768249
562,6.330,0.0310642841739748
563,6.337,0.0332931286497328
564,6.345,0.0373397447622343
565,6.352,0.0380412085058739
566,6.360,0.0287072151429278
567,6.367,0.0339003096321305
568,6.375,0.0320900806162864
569,6.382,0.0404171340891693
570,6.390,0.0391763729512262
571,6.397,0.034405665232387
572,6.405,0.0263162043178337
573,6.412,0.0319656273714472
574,6.420,0.0485405367977697
575,6.427,0.0441243322612001
576,6.435,0.0304193900870803
577,6.443,0.0322069912402264
578,6.450,0.0392404852288707
579,6.458,0.0297103837225414
580,6.465,0.0399117784889128
581,6.473,0.0445467190315637
582,6.480,0.036600567914098
583,6.488,0.024698312134923
584,6.495,0.0361329254183383
585,6.503,0.0382637158224048
586,6.510,0.0355408296777393
587,6.518,0.0330140516764569
588,6.525,0.0384824518284859
589,6.533,0.0470093847552016
590,6.540,0.0328104009121744
591,6.548,0.0508938345183671
592,6.556,0.0299856893853677
593,6.563,0.0492042874369126
594,6.571,0.0458025654113055
595,6.578,0.0431513341651839
596,6.586,0.0455498876111773
597,6.593,0.0434681242429566
598,6.601,0.0432493882368754
599,6.608,0.0353635780866045
600,6.616,0.0572862057305666
601,6.623,0.0535563796958378
602,6.631,0.0442073010910929
603,6.638,0.0353522641552555
604,6.646,0.04203502627208
605,6.654,0.0370191833740119
606,6.661,0.0413599617015881
607,6.669,0.0399758907665573
608,6.676,0.0320636814431387
609,6.684,0.0425818662872829
610,6.691,0.0368570170246759
611,6.699,0.0403379365697261
612,6.706,0.0420953672392748
613,6.714,0.0385314788643317
614,6.721,0.0455234884380296
615,6.729,0.0503205953300164
616,6.736,0.0385541067270298
617,6.744,0.0314037021144455
618,6.751,0.0402323398771352
619,6.759,0.0384145682403918
620,6.767,0.046877388889463
621,6.774,0.0471451519313899
622,6.782,0.0387690714226612
623,6.789,0.0431664194069825
624,6.797,0.0412091092836011
625,6.804,0.0516782670918995
626,6.812,0.0387879279749096
627,6.819,0.0327198894613822
628,6.827,0.0328066296017247
629,6.834,0.0371738071024486
630,6.842,0.042464955663343
631,6.849,0.0296010157195008
632,6.857,0.032942396777913
633,6.865,0.0293257100566745
634,6.872,0.0448823656615848
635,6.880,0.0442035297806432
636,6.887,0.0437849143207293
637,6.895,0.0496379881386252
638,6.902,0.0465455135698915
639,6.910,0.064225416957969
640,6.917,0.0490270358457778
641,6.925,0.0453009811214987
642,6.932,0.0471564658627389
643,6.940,0.0558380225178913
644,6.947,0.062494385461568
645,6.955,0.0485103663141723
646,6.962,0.0492985701981545
647,6.970,0.0444071805449257
648,6.978,0.0448861369720345
649,6.985,0.0570636984140357
650,6.993,0.0554872906460715
651,7.000,0.0662543819798942
652,7.008,0.0538957976363085
653,7.015,0.0578104178830714
654,7.023,0.083477956803561
655,7.030,0.139349921115499
656,7.038,0.145753606259048
657,7.045,0.0961608738458187
658,7.053,0.0896515920096793
659,7.060,0.105136592716046
660,7.068,0.0913449104015835
661,7.076,0.0896063362842832
662,7.083,0.0698484408384347
663,7.091,0.0743928699302934
664,7.098,0.0847715162877996
665,7.106,0.0695241081397627
666,7.113,0.0716435846124801
667,7.121,0.0873661778771761
668,7.128,0.0710854306659282
669,7.136,0.0639312547428943
670,7.143,0.0626640944318034
671,7.151,0.054367211442518
672,7.158,0.0846772335265577
673,7.166,0.124853003746948
674,7.173,0.107848164929362
675,7.181,0.0985367994291141
676,7.189,0.0802911994735854
677,7.196,0.064248044820667
678,7.204,0.0706441873433162
679,7.211,0.0599562935289366
680,7.219,0.0754790073397998
681,7.226,0.137667916654944
682,7.234,0.212867847021468
683,7.241,0.178548921929424
684,7.249,0.116488237169568
685,7.256,0.123925261376328
686,7.264,0.106113362122512
687,7.271,0.104107024963284
688,7.279,0.0948069733943853
689,7.286,0.0897986731172166
690,7.294,0.0761653858416407
691,7.302,0.064538435725292
692,7.309,0.0927516091993123
693,7.317,0.119222437245583
694,7.324,0.137230444642782
695,7.332,0.125245220033714
696,7.339,0.104993282918958
