#"+EI TIC Scan IPA-End-Blank.d "
#Point,X(Minutes),Y(Counts)
0,2.095,0.255378006631837
1,2.102,0.241323869570343
2,2.110,0.229526431998515
3,2.117,0.223138890463555
4,2.125,0.203075904589682
5,2.132,0.189044952796918
6,2.140,0.192491829414694
7,2.147,0.196989771548205
8,2.155,0.174183195541349
9,2.162,0.18607723839955
10,2.170,0.161419705105794
11,2.178,0.167358998111985
12,2.185,0.150495579322775
13,2.193,0.159441228840882
14,2.200,0.143400887091567
15,2.208,0.154483445544238
16,2.215,0.14758582809723
17,2.223,0.144911793770435
18,2.230,0.137824829962137
19,2.238,0.119794419313545
20,2.245,0.12822612870815
21,2.253,0.120308359437048
22,2.260,0.132538588691826
23,2.268,0.129717714329744
24,2.276,0.116378456387408
25,2.283,0.115138044510383
26,2.291,0.123840248706832
27,2.298,0.103495175396751
28,2.306,0.12453967098017
29,2.313,0.1229089737462
30,2.321,0.114995068686552
31,2.328,0.113708286272068
32,2.336,0.0954885292621856
33,2.343,0.104082535537897
34,2.351,0.105334540049286
35,2.358,0.101937898180424
36,2.366,0.0963231989364454
37,2.373,0.101756280242043
38,2.381,0.0996425565762097
39,2.389,0.093208644503791
40,2.396,0.0874316483787063
41,2.404,0.111281561478387
42,2.411,0.134690954472208
43,2.419,0.174229566078808
44,2.426,0.375388821786857
45,2.434,0.243128456319785
46,2.441,0.108205649160282
47,2.449,0.0859361985456576
48,2.456,0.104658303044678
49,2.464,0.0900824974367719
50,2.471,0.08934056883743
51,2.479,0.0865622008013524
52,2.487,0.0879996874625775
53,2.494,0.08048766039424
54,2.502,0.0916127251729148
55,2.509,0.0909944513401298
56,2.517,0.085715938492728
57,2.524,0.0890043824408531
58,2.532,0.0854068015763355
59,2.539,0.0735011660837697
60,2.547,0.0821144934167555
61,2.554,0.0967405337735752
62,2.562,0.0888729992513863
63,2.569,0.083822474879824
64,2.577,0.0780609356005589
65,2.584,0.0704484390343938
66,2.592,0.0813416511257743
67,2.600,0.0679521584345245
68,2.607,0.0737562040397935
69,2.615,0.0653399514910079
70,2.622,0.0806306362180715
71,2.630,0.0686747659765919
72,2.637,0.0657225084250436
73,2.645,0.08028285718713
74,2.652,0.081847862826367
75,2.660,0.075054579088642
76,2.667,0.0715342824532225
77,2.675,0.0834553747916079
78,2.682,0.079212470614121
79,2.690,0.0638831437725083
80,2.698,0.07451745369641
81,2.705,0.0757230876703407
82,2.713,0.0642579722836342
83,2.720,0.0613289000008154
84,2.728,0.0682458385050973
85,2.735,0.0635430931644766
86,2.743,0.0713642571492066
87,2.750,0.095430566090362
88,2.758,0.0721757415547369
89,2.765,0.064594158680211
90,2.773,0.0698494862588834
91,2.780,0.0792665695744897
92,2.788,0.0969221517119558
93,2.795,0.0808199825793619
94,2.803,0.0698340294130638
95,2.811,0.0650308145746154
96,2.818,0.0781498124640218
97,2.826,0.0745715526567787
98,2.833,0.0536623044742816
99,2.841,0.0583766424492671
100,2.848,0.0641459101514419
101,2.856,0.0783352946138573
102,2.863,0.0758737919170821
103,2.871,0.0676314288837673
104,2.878,0.0558842260608526
105,2.886,0.070688020144598
106,2.893,0.0723496310702077
107,2.901,0.081971517592924
108,2.908,0.0764495594238631
109,2.916,0.0672991066986453
110,2.924,0.0819019617867356
111,2.931,0.0779991082172804
112,2.939,0.0746952074233357
113,2.946,0.0745715526567787
114,2.954,0.060273970273626
115,2.961,0.136004786366877
116,2.969,2.32788599308747
117,2.976,17.631991126534
118,2.984,57.1306351940555
119,2.991,100
120,2.999,59.5502227891793
121,3.006,0.396282613123534
122,3.014,0.116780334378718
123,3.022,0.110918325601626
124,3.029,0.0946190816848318
125,3.037,0.0876441800087262
126,3.044,0.084769206686276
127,3.052,0.102575493070483
128,3.059,0.0954769366278209
129,3.067,0.0824738650820618
130,3.074,0.0880731074802207
131,3.082,0.0855188637085278
132,3.089,0.0598527712250412
133,3.097,0.0777672555299861
134,3.104,0.0711439970962769
135,3.112,0.0613057147320859
136,3.119,0.0543887762278039
137,3.127,0.0689491249898903
138,3.135,0.0878064768898322
139,3.142,0.10149351386311
140,3.150,0.0677048489014105
141,3.157,0.0504550089667095
142,3.165,0.0593040531984445
143,3.172,0.0788685557946343
144,3.180,0.0723071247442037
145,3.187,0.0559305965983115
146,3.195,0.0645632449885718
147,3.202,0.0598566354364961
148,3.210,0.0471356513269451
149,3.217,0.050103365724313
150,3.225,0.053190870676783
151,3.233,0.051421061830436
152,3.240,0.0436424041717099
153,3.248,0.0548061110649338
154,3.255,0.0555712249330052
155,3.263,0.0621287917719809
156,3.270,0.0888304929253824
157,3.278,0.0527774000511081
158,3.285,0.0481094326135814
159,3.293,0.0351759168740106
160,3.300,0.0522480030817859
161,3.308,0.0432753040834939
162,3.315,0.0440133684713809
163,3.323,0.073651870330511
164,3.330,0.0452344592911313
165,3.338,0.0400061811926433
166,3.346,0.0391560546725639
167,3.353,0.0314585454543909
168,3.361,0.038657571394881
169,3.368,0.0339200481511661
170,3.376,0.0338736776137072
171,3.383,0.0376142343020564
172,3.391,0.0276097908453044
173,3.398,0.0396390811044272
174,3.406,0.0263655147568246
175,3.413,0.0382750144608453
176,3.421,0.0338234428647934
177,3.428,0.0397240937564351
178,3.436,0.0399636748666393
179,3.444,0.0320265845382621
180,3.451,0.0347238041337866
181,3.459,0.0435883052113413
182,3.466,0.0409954193250992
183,3.474,0.0424522270435989
184,3.481,0.0233784793021821
185,3.489,0.0681067268927207
186,3.496,0.0952875902665305
187,3.504,0.0471627008071294
188,3.511,0.0384334471304965
189,3.519,0.0332515395694673
190,3.526,0.0363390445219373
191,3.534,0.0301331209253581
192,3.541,0.0310566674630806
193,3.549,0.0307823084497823
194,3.557,0.0328187478865178
195,3.564,0.0301949483086366
196,3.572,0.0307243452779587
197,3.579,0.0269219612063311
198,3.587,0.0215004725350978
199,3.594,0.032030448749717
200,3.602,0.0299244535067931
201,3.609,0.0215468430725566
202,3.617,0.0183665970451689
203,3.624,0.0222346727115299
204,3.632,0.0333636017016596
205,3.639,0.0279305203960616
206,3.647,0.0339200481511661
207,3.654,0.0301215282909934
208,3.662,0.0301563061940875
209,3.670,0.0222578579802594
210,3.677,0.0249589417872388
211,3.685,0.0329694521332592
212,3.692,0.0244991006241049
213,3.700,0.0264968979462914
214,3.707,0.0263346010651853
215,3.715,0.032482561489941
216,3.722,0.0352686579489283
217,3.730,0.0205691975744654
218,3.737,0.0223621916895418
219,3.745,0.0234557635312803
220,3.752,0.0215932136100155
221,3.760,0.0215893493985606
222,3.768,0.0296732797622242
223,3.775,0.0295650818414869
224,3.783,0.013258109501783
225,3.790,0.0278918782815125
226,3.798,0.0248546080779563
227,3.805,0.0246111627562972
228,3.813,0.0264389347744678
229,3.820,0.0314624096658458
230,3.828,0.0230654781743348
231,3.835,0.0379542849100881
232,3.843,0.0190660193185069
233,3.850,0.0360376360284547
234,3.858,0.025318313452545
235,3.865,0.0298587619120597
236,3.873,0.0215429788611017
237,3.881,0.0285140163257524
238,3.888,0.0185173012919102
239,3.896,0.029476204978024
240,3.903,0.0224162906499105
241,3.911,0.0287149553214075
242,3.918,0.0273122465632766
243,3.926,0.0215970778214704
244,3.933,0.0174314578730816
245,3.941,0.0110980152984904
246,3.948,0.0238228636194964
247,3.956,0.019224451988158
248,3.963,0.0324786972784861
249,3.971,0.0709546507349866
250,3.979,0.0785864683584262
251,3.986,0.0253144492410901
252,3.994,0.0300597009077149
253,4.001,0.0167861345601123
254,4.009,0.0229611444650523
255,4.016,0.0206619386493831
256,4.024,0.0199316026844059
257,4.031,0.0373437395002129
258,4.039,0.015398882647801
259,4.046,0.0210406313719639
260,4.054,0.0252178439547175
261,4.061,0.0305040852250291
262,4.069,0.0403616886464946
263,4.076,0.0235987393551118
264,4.084,0.0212879409050779
265,4.092,0.0238228636194964
266,4.099,0.0349208789179868
267,4.107,0.0490213865169393
268,4.114,0.0419962500919199
269,4.122,0.0240624447297005
270,4.129,0.0302451830575504
271,4.137,0.0240238026151515
272,4.144,0.0195258604816407
273,4.152,0.0178140148071173
274,4.159,0.0217864241827608
275,4.167,0.0168170482517515
276,4.174,0.0202252827549787
277,4.182,0.0284599173653837
278,4.190,0.0180072253798626
279,4.197,0.0181772506838785
280,4.205,0.020379851213175
281,4.212,0.0207044449753871
282,4.220,0.0176246684458269
283,4.227,0.0218868936805884
284,4.235,0.024742545945764
285,4.242,0.0157968964276563
286,4.250,0.0223660559009967
287,4.257,0.0213884104029055
288,4.265,0.0188805371686714
289,4.272,0.0192399088339777
290,4.280,0.031288520150375
291,4.287,0.0191394393361501
292,4.295,0.0257820188271338
293,4.303,0.0152520426125145
294,4.310,0.0189964635123186
295,4.318,0.0170257156703165
296,4.325,0.0233089234959938
297,4.333,0.0168750114235751
298,4.340,0.0162953797053392
299,4.348,0.0151438446917772
300,4.355,0.019019648781048
301,4.363,0.0131846894841398
302,4.370,0.018443881274267
303,4.378,0.020665802860838
304,4.385,0.0157853037932916
305,4.393,0.0231891329408917
306,4.401,0.0129180588937512
307,4.408,0.0183859181024434
308,4.416,0.0664296591212915
309,4.423,0.151921473349635
310,4.431,0.0831385094523056
311,4.438,0.0230886634430642
312,4.446,0.0283787689248307
313,4.453,0.0233707508792723
314,4.461,0.0319415718862542
315,4.468,0.0159591933087624
316,4.476,0.0141777918280506
317,4.483,0.0269490106865154
318,4.491,0.0168518261548457
319,4.498,0.0109125331486549
320,4.506,0.0161330828242331
321,4.514,0.0203759870017201
322,4.521,0.0187916603052086
323,4.529,0.0154143394936206
324,4.536,0.0268176274970486
325,4.544,0.0192167235652482
326,4.551,0.0126668851491823
327,4.559,0.0289661290659764
328,4.566,0.0134049495370694
329,4.574,0.00779025029309078
330,4.581,0.0181772506838785
331,4.589,0.0149776835992162
332,4.596,0.00955619492798289
333,4.604,0.0130185283915788
334,4.611,0.0164383555291707
335,4.619,0.0191123898559658
336,4.627,0.003458469252141
337,4.634,0.0106768162499057
338,4.642,0.0104101856595171
339,4.649,0.0118244870520128
340,4.657,0.00831191883950311
341,4.664,0.0214154598830898
342,4.672,0.0206580744379282
343,4.679,0.0164769976437198
344,4.687,0.0183163622962551
345,4.694,0.0219641779096865
346,4.702,0.0152481784010596
347,4.709,0.00845103045187973
348,4.717,0.0141391497135016
349,4.725,0.0118090302061932
350,4.732,0.0111752995275886
351,4.740,0.0221303390022475
352,4.747,0.0154568458196246
353,4.755,0.017002530401587
354,4.762,0.0112062132192278
355,4.770,0.0158123532734759
356,4.777,0.00875243894536241
357,4.785,0.00835828937696198
358,4.792,0.0127248483210059
359,4.800,0.01646926922081
360,4.807,0.0190930687986912
361,4.815,0.00484958537590721
362,4.822,0.0107695573248234
363,4.830,0.0186757339615614
364,4.838,0.0272890612945472
365,4.845,0.0308093579299667
366,4.853,0.0297273787225929
367,4.860,0.0222230800771652
368,4.868,0.0243406679544538
369,4.875,0.0193442425432601
370,4.883,0.0204571354422731
371,4.890,0.0193751562348994
372,4.898,0.0182583991244315
373,4.905,0.0171957409743323
374,4.913,0.0149119920044828
375,4.920,0.0247348175228542
376,4.928,0.0279884835678852
377,4.936,0.0163301576084334
378,4.943,0.0155920932205463
379,4.951,0.00952528123634364
380,4.958,0.012639835668998
381,4.966,0.00382556934035708
382,4.973,0.0161755891502371
383,4.981,0.00777479344727115
384,4.988,0.0122147724089583
385,4.996,0.0144676076871686
386,5.003,0.0132426526559633
387,5.011,0.0197113426314762
388,5.018,0.0192940077943464
389,5.026,0.00149544983304868
390,5.033,0.016136947035688
391,5.041,0.007740015544177
392,5.049,0.00513940123502517
393,5.056,0.0143980518809803
394,5.064,0
395,5.071,0.0119210923383854
396,5.079,0.011198484796318
397,5.086,0.0140695939073133
398,5.094,0.013752728568011
399,5.101,0.0129914789113944
400,5.109,0.020213690120614
401,5.116,0.0161949102075116
402,5.124,0.0172034693972421
403,5.131,0.0204880491339124
404,5.139,0.00637594890059513
405,5.147,0.0201789122175199
406,5.154,0.00755839760579641
407,5.162,0.00459068320842849
408,5.169,0.00729563122686279
409,5.177,0.015932143828578
410,5.184,0.0148424361982945
411,5.192,0.00590837931455149
412,5.199,0.00514712965793498
413,5.207,0.0061015898872968
414,5.214,0.0168634187892104
415,5.222,0.00835828937696198
416,5.229,0.016716578753924
417,5.237,0.0124157114046134
418,5.244,0.00192824151599816
419,5.252,0.0173503094325286
420,5.260,0.0176903600405603
421,5.267,0.00185095728690004
422,5.275,0.0134126779599792
423,5.282,0.0106304457124468
424,5.290,0.0072376680550392
425,5.297,0.00966825706017516
426,5.305,0.0112255342765023
427,5.312,0.00588132983436715
428,5.320,0.0117124249198205
429,5.327,0.0147226456431924
430,5.335,0.0106884088842704
431,5.342,0.00782502819618493
432,5.350,0.00477230114680908
433,5.357,0.0120717965851268
434,5.365,0.0152095362865106
435,5.373,0.012021561836213
436,5.380,0.0105531614833487
437,5.388,0.0111521142588591
438,5.395,0.0174662357761758
439,5.403,0.0110091384350276
440,5.410,0.0195992804992839
441,5.418,0.0183511401993493
442,5.425,0.0149660909648515
443,5.433,0.016303108128249
444,5.440,0.0108816194570157
445,5.448,0.0143787308237057
446,5.455,0.0064841468213325
447,5.463,0.0136483948587285
448,5.471,0.0119751912987541
449,5.478,0.0104333709282466
450,5.486,0.0125741440742646
451,5.493,0.0147110530088277
452,5.501,0.0112332626994121
453,5.508,0.0313155696305594
454,5.516,0.0106884088842704
455,5.523,0.0150626962512241
456,5.531,0.0157737111589269
457,5.538,0.0140309517927642
458,5.546,0.0108043352279176
459,5.553,0.00768978079526322
460,5.561,0.0176285326572818
461,5.568,0.0207624081472107
462,5.576,0.0112757690254161
463,5.584,0.0075545333943415
464,5.591,0.00161137617669586
465,5.599,0.00358212401869799
466,5.606,0.0156616490267346
467,5.614,0.00971849180908894
468,5.621,0.00520895704121348
469,5.629,0.0219989558127807
470,5.636,0.0145410277048118
471,5.644,0.0150511036168594
472,5.651,0.0228027117954011
473,5.659,0.011693103862546
474,5.666,0.00985373921001066
475,5.674,0.00985373921001066
476,5.682,0.0211449650812464
477,5.689,0.0164847260666296
478,5.697,0.0161060333440488
479,5.704,0.0108584341882863
480,5.712,0.013667715916003
481,5.719,0.0140850507531329
482,5.727,0.0206001112661046
483,5.734,0.021326583019627
484,5.742,0.0211951998301602
485,5.749,0.00877562421409184
486,5.757,0.00854377152679748
487,5.764,0.01832022650771
488,5.772,0.0192051309308835
489,5.779,0.0107000015186351
490,5.787,0.0101899256065875
491,5.795,0.0178526569216664
492,5.802,0.012844638876108
493,5.810,0.00557992134088447
494,5.817,0.00440906527004791
495,5.825,0.011403288003428
496,5.832,0.00991556659328916
497,5.840,0.00886450107755469
498,5.847,0.0131846894841398
499,5.855,0.0150511036168594
500,5.862,0.00911953903357849
501,5.870,0.00935912014378267
502,5.877,0.0153293268416127
503,5.885,0.010332901430419
504,5.893,0.0121490808142249
505,5.900,0.00746952074233357
506,5.908,0.0111752995275886
507,5.915,0.0121258955454955
508,5.923,0.025650635637667
509,5.930,0.00758158287452585
510,5.938,0.0188264382083027
511,5.945,0.0242788405711753
512,5.953,0.0101667403378581
513,5.960,0.00856695679552691
514,5.968,0.0152249931323302
515,5.975,0.0157853037932916
516,5.983,0.0146955961630081
517,5.990,0.0131924179070496
518,5.998,0.0116853754396362
519,6.006,0.00337732081158797
520,6.013,0.00795641138565174
521,6.021,0.0198775037240372
522,6.028,0.0209826682001403
523,6.036,0.0221535242709769
524,6.043,0.023672159372755
525,6.051,0.027748902457681
526,6.058,0.0244372732408264
527,6.066,0.0277682235149555
528,6.073,0.0191007972216011
529,6.081,0.0185907213095534
530,6.088,0.0181617938380589
531,6.096,0.0168634187892104
532,6.104,0.0032072955075721
533,6.111,0.0135556537838107
534,6.119,0.0244604585095559
535,6.126,0.0202639248695278
536,6.134,0.0433023535636782
537,6.141,0.0461889195204931
538,6.149,0.0397240937564351
539,6.156,0.0400564159415571
540,6.164,0.0170527651505008
541,6.171,0.021778695759851
542,6.179,0.0130842199863122
543,6.186,0.0104410993511564
544,6.194,0.0175280631594543
545,6.201,0.0207971860503048
546,6.209,0.0247618670030385
547,6.217,0.0117433386114598
548,6.224,0.0158548595994799
549,6.232,0.0207971860503048
550,6.239,0.0257008703865807
551,6.247,0.0294916618238437
552,6.254,0.0226713286059343
553,6.262,0.018239078067157
554,6.269,0.0141739276165957
555,6.277,0.00527078442449198
556,6.284,0.0184477454857219
557,6.292,0.0252333008005371
558,6.299,0.00823849882185989
559,6.307,0.0139420749293014
560,6.314,0.00693625956155652
561,6.322,0.0160673912294997
562,6.330,0.00834283253114236
563,6.337,0.0103792719678779
564,6.345,0.0163919849917118
565,6.352,0.0203257522528063
566,6.360,0.0203412090986259
567,6.367,0.0142743971144233
568,6.375,0.0109704963204785
569,6.382,0.006422319438054
570,6.390,0.0105647541177134
571,6.397,0.0140502728500387
572,6.405,0.00765113868071416
573,6.412,0.0124891314222566
574,6.420,0.0168325050975711
575,6.428,0.0214966083236429
576,6.435,0.0144135087267999
577,6.443,0.00624456571112832
578,6.450,0.0115964985761733
579,6.458,0.0163262933969784
580,6.465,0.022559266473742
581,6.473,0.0202832459268023
582,6.480,0.0216782262620234
583,6.488,0.00850899362370332
584,6.495,0.0139498033522112
585,6.503,0.00819985670731083
586,6.510,0.0151438446917772
587,6.518,0.0216743620505685
588,6.525,0.00944799700724551
589,6.533,0.0170682219963204
590,6.541,0.0141430139249565
591,6.548,0.0157389332558327
592,6.556,0.0124195756160683
593,6.563,0.0172575683576108
594,6.571,0.0198697753011274
595,6.578,0.020584654420285
596,6.586,0.0119558702414796
597,6.593,0.0177251379436545
598,6.601,0.0149660909648515
599,6.608,0.0137836422596502
600,6.616,0.0196842931512919
601,6.623,0.00910021797630396
602,6.631,0.0237417151789433
603,6.639,0.0107811499591881
604,6.646,0.0194910825785466
605,6.654,0.0271924560081745
606,6.661,0.0232741455928997
607,6.669,0.00826554830204423
608,6.676,0.0190969330101461
609,6.684,0.0147844730264709
610,6.691,0.0106961373071802
611,6.699,0.0138145559512895
612,6.706,0.00945186121870042
613,6.714,0.0182352138557021
614,6.721,0.015313869995793
615,6.729,0.020542148094281
616,6.736,0.0343296545653861
617,6.744,0.0159128227713035
618,6.752,0.023343701399088
619,6.759,0.0160635270180448
620,6.767,0.0170102588244968
621,6.774,0.0197693058032998
622,6.782,0.0190428340497775
623,6.789,0.01049906252298
624,6.797,0.013258109501783
625,6.804,0.0125934651315391
626,6.812,0.0167899987715672
627,6.819,0.0244063595491872
628,6.827,0.0217245967994823
629,6.834,0.00908089691902943
630,6.842,0.0133933569027047
631,6.850,0.0203257522528063
632,6.857,0.0143864592466156
633,6.865,0.0249318923070544
634,6.872,0.0193828846578092
635,6.880,0.0201248132571512
636,6.887,0.0296887366080439
637,6.895,0.0177599158467486
638,6.902,0.0155379942601776
639,6.910,0.0280425825282539
640,6.917,0.010661359404086
641,6.925,0.0152056720750557
642,6.932,0.0101358266462188
643,6.940,0.0214347809403644
644,6.947,0.0195490457503702
645,6.955,0.0224433401300949
646,6.963,0.0330931068998162
647,6.970,0.0223390064208124
648,6.978,0.019885232146947
649,6.985,0.018196571741153
650,6.993,0.00940162646978664
651,7.000,0.0167513566570181
652,7.008,0.0256776851178513
653,7.015,0.0272658760258177
654,7.023,0.0469385765427449
655,7.030,0.0830148546857486
656,7.038,0.0958131230243977
657,7.045,0.0749270601106301
658,7.053,0.0528855979718454
659,7.060,0.0467492301814545
660,7.068,0.0489402380763863
661,7.076,0.0454083488066021
662,7.083,0.0308170863528765
663,7.091,0.0391174125580149
664,7.098,0.0349363357638064
665,7.106,0.0241976921306222
666,7.113,0.0411229383031111
667,7.121,0.0215893493985606
668,7.128,0.0297428355684126
669,7.136,0.0234596277427352
670,7.143,0.0322236593224623
671,7.151,0.0244295448179166
672,7.158,0.0383329776326689
673,7.166,0.0518499893019306
674,7.174,0.0578124675768508
675,7.181,0.0441988506212164
676,7.189,0.0410186045938287
677,7.196,0.0345653714641354
678,7.204,0.0318372381769717
679,7.211,0.0342407777019233
680,7.219,0.0392294746902071
681,7.226,0.0676623425754065
682,7.234,0.126351986152521
683,7.241,0.129733171175564
684,7.249,0.102571628859029
685,7.256,0.0646096155260307
686,7.264,0.0612438873488074
687,7.271,0.0478234809659184
688,7.279,0.0496396603497243
689,7.287,0.0453812993264177
690,7.294,0.0448982728945544
691,7.302,0.0513128639096986
692,7.309,0.0364472424426747
693,7.317,0.0475607145869848
694,7.324,0.0432521188147644
