#"+EI TIC Scan IPA-SLA.d "
#Point,X(Minutes),Y(Counts)
0,2.095,0.275330735449806
1,2.102,0.261131429499644
2,2.110,0.234236317414852
3,2.117,0.24467873921057
4,2.125,0.229453471847824
5,2.132,0.217503819467801
6,2.140,0.216966588764484
7,2.147,0.197040552747717
8,2.155,0.194078322341929
9,2.163,0.190828822740618
10,2.170,0.177621901284082
11,2.178,0.155625288598282
12,2.185,0.162415287765201
13,2.193,0.164717172098162
14,2.200,0.158124903676214
15,2.208,0.169432863827276
16,2.215,0.156897480749886
17,2.223,0.156524403872583
18,2.230,0.140907405788668
19,2.238,0.141515521098673
20,2.245,0.143380905485189
21,2.253,0.147943635694608
22,2.260,0.136400637110845
23,2.268,0.135516444911636
24,2.276,0.116608908769907
25,2.283,0.121223869742148
26,2.291,0.104935333279088
27,2.298,0.109013063548013
28,2.306,0.116273139580334
29,2.313,0.116582793388496
30,2.321,0.111960370878708
31,2.328,0.111109755598457
32,2.336,0.102066372092626
33,2.343,0.0861434509693227
34,2.351,0.0941720653688889
35,2.358,0.0906241042657349
36,2.366,0.0969402957984791
37,2.374,0.0906688734910113
38,2.381,0.0885871045156591
39,2.389,0.0877887199982301
40,2.396,0.0907733350166562
41,2.404,0.120973908234355
42,2.411,0.111576101695086
43,2.419,0.167537633290575
44,2.426,0.332008574649717
45,2.434,0.198428398731285
46,2.441,0.100006987729912
47,2.449,0.0818082976550589
48,2.456,0.0723731834280594
49,2.464,0.0786595288106194
50,2.471,0.0780103750441117
51,2.479,0.0826924898542676
52,2.487,0.0678365686000518
53,2.494,0.0753204907587552
54,2.502,0.114933793590815
55,2.509,1.63753887600965
56,2.517,3.1589389201148
57,2.524,0.687774684846106
58,2.532,0.350621380058377
59,2.539,0.276125389198462
60,2.547,0.226558395279951
61,2.554,0.197353937324652
62,2.562,0.153569635004341
63,2.569,0.141892328744749
64,2.577,0.140791751956704
65,2.585,0.121608138925771
66,2.592,0.131076830071727
67,2.600,0.114165255223571
68,2.607,0.110087524954646
69,2.615,0.10983383267808
70,2.622,0.0963993343263894
71,2.630,0.106442563863393
72,2.637,0.0875536815655291
73,2.645,0.0960411805241782
74,2.652,0.0841474896757503
75,2.660,0.150663366130149
76,2.667,1.09071636617749
77,2.675,1.02409602819745
78,2.682,0.269693543833754
79,2.690,0.21466097366275
80,2.698,0.707144836315691
81,2.705,0.541144279759606
82,2.713,0.20340524427451
83,2.720,0.154069558019927
84,2.728,0.118481754693969
85,2.735,0.1340689066277
86,2.743,0.119656946857475
87,2.750,0.125021792353095
88,2.758,0.104510025638962
89,2.765,0.107199909924319
90,2.773,0.091441142627029
91,2.780,0.0904524889021754
92,2.788,0.109412255806727
93,2.795,0.0875238354153448
94,2.803,0.0914523349333481
95,2.811,0.0791221441384754
96,2.818,0.0935751423652037
97,2.826,0.0919373348738424
98,2.833,0.0800921440194639
99,2.841,0.072667914161129
100,2.848,0.0771522982263142
101,2.856,0.0730820294949356
102,2.863,0.0763912213966155
103,2.871,0.0732760294711333
104,2.878,0.0676201840112159
105,2.886,0.0721045680764011
106,2.893,0.0675567609420743
107,2.901,0.0846175665411524
108,2.909,0.0851547972444691
109,2.916,0.0795549133161472
110,2.924,0.073130529488985
111,2.931,0.0832856820891798
112,2.939,0.0787042980358957
113,2.946,0.0654376842789918
114,2.954,0.0638147998627226
115,2.961,0.184613361964745
116,2.969,3.06031231683091
117,2.976,21.5055950152751
118,2.984,62.5717785921549
119,2.991,100
120,2.999,17.1749223543076
121,3.006,0.16135574943366
122,3.014,0.0957277959472435
123,3.022,0.0853898356771702
124,3.029,0.090515911971317
125,3.037,0.0744213754844543
126,3.044,0.08067787471683
127,3.052,0.0922656425258692
128,3.059,0.0699146068066309
129,3.067,0.064997453563774
130,3.074,0.0726343372421717
131,3.082,0.0604869541171776
132,3.089,0.0488133786263585
133,3.097,0.0591476081276589
134,3.104,0.0568606468697899
135,3.112,0.0398110335770309
136,3.120,0.0452281098354742
137,3.127,0.0497274169757515
138,3.135,0.0686797223427571
139,3.142,0.0851659895507882
140,3.150,0.0583790697604141
141,3.157,0.0453661482800764
142,3.165,0.0574762237173402
143,3.172,0.0741303755201578
144,3.180,0.0584051851418254
145,3.187,0.0564875699924866
146,3.195,0.0507160707006052
147,3.202,0.0450714175470068
148,3.210,0.0466980327320491
149,3.217,0.0468472634829704
150,3.225,0.0472128788227276
151,3.233,0.0322487652740938
152,3.240,0.0368562647087891
153,3.248,0.0387253798640784
154,3.255,0.0455526867187281
155,3.263,0.0465935712064042
156,3.270,0.0693773761033142
157,3.278,0.0469032250145659
158,3.285,0.0277270735211783
159,3.293,0.0440342638281038
160,3.300,0.0360839955727713
161,3.308,0.0378784953526
162,3.315,0.0366734570389105
163,3.323,0.0540924164401997
164,3.331,0.0425382255501177
165,3.338,0.0221533049742676
166,3.346,0.0284359195880545
167,3.353,0.0247088815837949
168,3.361,0.0372629185050496
169,3.368,0.0236717278648919
170,3.376,0.0398408797272151
171,3.383,0.0337000343268035
172,3.391,0.0213847666070229
173,3.398,0.0249215354038578
174,3.406,0.0289843425976903
175,3.413,0.0303609962749393
176,3.421,0.0300625347730967
177,3.428,0.0274472658632008
178,3.436,0.0194074591573156
179,3.444,0.0190082668986011
180,3.451,0.0318197268651951
181,3.459,0.0354609571876749
182,3.466,0.0127293830535872
183,3.474,0.0278501888906884
184,3.481,0.0255483045577273
185,3.489,0.0614606847669391
186,3.496,0.0880461430435694
187,3.504,0.0424971870936144
188,3.511,0.0227502279779528
189,3.519,0.0282269965367647
190,3.526,0.0267458813338707
191,3.534,0.031237726936602
192,3.542,0.0222353818872743
193,3.549,0.0255669584015924
194,3.557,0.0312601115492402
195,3.564,0.0201125744554187
196,3.572,0.0127816138164097
197,3.579,0.0234217663570987
198,3.587,0.0286411118705713
199,3.594,0.0229666125667887
200,3.602,0.0222689588062316
201,3.609,0.0156654980779639
202,3.617,0.0240224201295569
203,3.624,0.0185941515647945
204,3.632,0.024835727722078
205,3.639,0.0243992277756332
206,3.647,0.0340059573661922
207,3.655,0.0247536508090713
208,3.662,0.0164601518266198
209,3.670,0.0238657278410895
210,3.677,0.0207691897594725
211,3.685,0.0220525742173957
212,3.692,0.0150946904556899
213,3.700,0.0200640744613693
214,3.707,0.030096111692054
215,3.715,0.0233583432879571
216,3.722,0.0149081520170383
217,3.730,0.00380538414849325
218,3.737,0.0170234979113478
219,3.745,0.0187321900093967
220,3.752,0.0153595750385752
221,3.760,0.0147514597285709
222,3.768,0.0198215744911222
223,3.775,0.0214817665951217
224,3.783,0.0213325358442004
225,3.790,0.0189784207484168
226,3.798,0.0195044591454144
227,3.805,0.00317861499462378
228,3.813,0.0178218824287767
229,3.820,0.0127816138164097
230,3.828,0.0126771522907648
231,3.835,0.0119981523740728
232,3.843,0.0126883445970839
233,3.850,0.0221197280553103
234,3.858,0.00946122960841068
235,3.866,0.0136769983219375
236,3.873,0.00651392227771492
237,3.881,0.0225226510827978
238,3.888,0.0335843804948395
239,3.896,0.0317152653395501
240,3.903,0.0191052668866999
241,3.911,0.00914784503147594
242,3.918,0.0163109210756985
243,3.926,0.0167287671782782
244,3.933,0.0203028436628434
245,3.941,0.0214854973638947
246,3.948,0.0172995748005522
247,3.956,0.0119981523740728
248,3.963,0.030215496292791
249,3.971,0.0743318370339015
250,3.979,0.0660569918953152
251,3.986,0.0159826134236717
252,3.994,0.00379792261094719
253,4.001,0.016710113334413
254,4.009,0.0596960311372946
255,4.016,0.0442058791916633
256,4.024,0.0263877275316596
257,4.031,0.0144380751516362
258,4.039,0.0176913055217206
259,4.046,0.0313198038496087
260,4.054,0.0170869209804893
261,4.061,0.0170682671366241
262,4.069,0.0340395342851494
263,4.077,0.0326964575268577
264,4.084,0.0228621510411438
265,4.092,0.0183926900510507
266,4.099,0.0152140750564269
267,4.107,0.00973357572884206
268,4.114,0.017389113251105
269,4.122,0.00626769153869477
270,4.129,0.0430083024155198
271,4.137,0.037990418415791
272,4.144,0.0341439958107944
273,4.152,0.0351139956917828
274,4.159,0.0206871128464658
275,4.167,0.0325621498510285
276,4.174,0.0237538047778986
277,4.182,0.0165198441269884
278,4.190,0.00975969111025328
279,4.197,0.013960536748688
280,4.205,0.0159341134296222
281,4.212,0.0123824215576952
282,4.220,0.0104237679518531
283,4.227,0.0186090746398866
284,4.235,0.0266153044268146
285,4.242,0.016594459502449
286,4.250,0.00859942202184014
287,4.257,0.0118787677733358
288,4.265,0.00921126810061749
289,4.272,0.0110318832618574
290,4.280,0
291,4.288,0.0120018831428459
292,4.295,0.0160534980303593
293,4.303,0.0149044212482652
294,4.310,0.00611846078777347
295,4.318,0.0100991910685992
296,4.325,0.00802488363079312
297,4.333,0.00314130730689345
298,4.340,0.0177547285908621
299,4.348,0.0145984982088766
300,4.355,0.00420830717598077
301,4.363,0.0134344983516904
302,4.370,0.0113415370700191
303,4.378,0.00896503736159734
304,4.385,0.0112557293882394
305,4.393,0.0130091907115647
306,4.401,0.00886057583595243
307,4.408,0.0170682671366241
308,4.416,0.0735931448168411
309,4.423,0.148835289431363
310,4.431,0.0478956095081925
311,4.438,0.0185232669581069
312,4.446,0.00179449977982868
313,4.453,0.0156543057716448
314,4.461,0.00356288417824613
315,4.468,0.00284657657382387
316,4.476,0.0145873059025575
317,4.483,0.0117593831725988
318,4.491,0.00953211421509829
319,4.498,0.0165310364333075
320,4.506,0.00752122984643372
321,4.514,0.0210937666427263
322,4.521,0.0234516125072829
323,4.529,0.0173331517195095
324,4.536,0.0205863820895939
325,4.544,0.0146283443590608
326,4.551,0.026891381316019
327,4.559,0.0113378063012461
328,4.566,0.0042232302510729
329,4.574,0.00854719125901769
330,4.581,0.0187844207722191
331,4.589,0.00942765268945338
332,4.596,0.00864792201588957
333,4.604,0.01224065234432
334,4.612,0.0162437672377839
335,4.619,0.00213026896940161
336,4.627,0.011897421617201
337,4.634,0.00513726860046589
338,4.642,0.0189336515231404
339,4.649,0.015102151993236
340,4.657,0.00504026861236704
341,4.664,0.0185717669521563
342,4.672,0.00260034583480372
343,4.679,0.0111736524752326
344,4.687,0.00795026825533247
345,4.694,0.0115691139651741
346,4.702,0.00498803784954459
347,4.709,0.0193925360822235
348,4.717,0.012471960008248
349,4.725,0.0112818447696506
350,4.732,0.0150834981493708
351,4.740,0.00977834495411845
352,4.747,0.0226494972210809
353,4.755,0.0149491904735416
354,4.762,0.0208139589847489
355,4.770,0.0116586524157269
356,4.777,0.0203401513505737
357,4.785,0.0147962289538473
358,4.792,0.0160273826489481
359,4.800,0.0055961531595489
360,4.807,0.00604757618108585
361,4.815,0.00462242250978739
362,4.823,0.0157139980720133
363,4.830,0.0204744590264029
364,4.838,0.0184374592763271
365,4.845,0.0253729584253947
366,4.853,0.165023095137551
367,4.860,0.407317873102153
368,4.868,0.165224556651295
369,4.875,0.0602407233781574
370,4.883,0.0472278018978197
371,4.890,0.026324304462518
372,4.898,0.0289171887597757
373,4.905,0.0492312247289382
374,4.913,0.033871649690363
375,4.920,0.0258504968283429
376,4.928,0.019340305319401
377,4.936,0.0245745739079657
378,4.943,0.0196984591216121
379,4.951,0.0156058057775954
380,4.958,0.0125764215338929
381,4.966,0.0165347672020805
382,4.973,0.0140127675115104
383,4.981,0.0218138050159216
384,4.988,0.0144529982267283
385,4.996,0.0152439212066112
386,5.003,0.00397326874327972
387,5.011,0.0443066099485352
388,5.018,0.420162909987705
389,5.026,0.526586820007232
390,5.034,0.149775443162167
391,5.041,0.0570098776207112
392,5.049,0.0447244560511148
393,5.056,0.0494140323988168
394,5.064,0.0427396870638615
395,5.071,0.0310810346481346
396,5.079,0.0430679947158883
397,5.086,0.0157251903783324
398,5.094,0.0168817286979725
399,5.101,0.0283128042185444
400,5.109,0.0209967666546275
401,5.116,0.0275218812386615
402,5.124,0.0146022289776496
403,5.131,0.0103342295013003
404,5.139,0.0192097284123449
405,5.147,0.09738425728247
406,5.154,0.408325180670872
407,5.162,0.352427072144525
408,5.169,0.111874563196929
409,5.177,0.0593154927224453
410,5.184,0.0526336858499439
411,5.192,0.059848992656989
412,5.199,0.0561033008088642
413,5.207,0.0462652635543773
414,5.214,0.0321256499045837
415,5.222,0.0335209574256979
416,5.229,0.0229181125727393
417,5.237,0.0439783022965083
418,5.245,0.514446898419784
419,5.252,1.66184856533473
420,5.260,0.770571636226019
421,5.267,0.245667392935424
422,5.275,0.163881479893003
423,5.282,0.113687716820622
424,5.290,0.108513140532426
425,5.297,0.0815657976848117
426,5.305,0.0945339499398731
427,5.312,0.0726529910860369
428,5.320,0.053790224169584
429,5.327,0.056756185344145
430,5.335,0.0493394170233561
431,5.342,0.0449035329522204
432,5.350,0.0392924567175794
433,5.358,0.0407176103888778
434,5.365,0.0359011879028927
435,5.373,0.0351475726107401
436,5.380,0.0316070730451322
437,5.388,0.0370465339162137
438,5.395,0.036848803171243
439,5.403,0.0306818423894201
440,5.410,0.0279658427226524
441,5.418,0.0250782276923251
442,5.425,0.0205154974829063
443,5.433,0.0432881100734973
444,5.440,0.034677495745338
445,5.448,0.0242238816433007
446,5.455,0.0277009581397671
447,5.463,0.0171540748184039
448,5.471,0.0299244963284945
449,5.478,0.0324464960190645
450,5.486,0.0205229590204523
451,5.493,0.0185307284956529
452,5.501,0.014076190580652
453,5.508,0.0258430352907968
454,5.516,0.0129494984111962
455,5.523,0.0317637653335996
456,5.531,0.0221085357489912
457,5.538,0.0125353830773895
458,5.546,0.0165123825894423
459,5.553,0.0176614593715363
460,5.561,0.0166653441091366
461,5.569,0.0132554214505848
462,5.576,0.0204632667200838
463,5.584,0.0226047279958045
464,5.591,0.0399789181718173
465,5.599,0.0198887283290368
466,5.606,0.0356325725512344
467,5.614,0.731991756344088
468,5.621,6.78475743679322
469,5.629,8.54184133659716
470,5.636,2.03109767387686
471,5.644,0.658894803774061
472,5.651,0.450818636995713
473,5.659,0.342450996445435
474,5.666,0.274308504805995
475,5.674,0.199305129392948
476,5.682,0.189176092174164
477,5.689,0.171734748160237
478,5.697,0.173962017117737
479,5.704,0.142713097874816
480,5.712,0.114198832142528
481,5.719,0.114963639741
482,5.727,0.111285101730789
483,5.734,0.105547179357865
484,5.742,0.0912471426508314
485,5.749,0.0795735671600123
486,5.757,0.074611644691879
487,5.764,0.0745817985416947
488,5.772,0.0727126833864054
489,5.780,0.0586327620369804
490,5.787,0.0607779540814741
491,5.795,0.0600131464830024
492,5.802,0.0599049541885845
493,5.810,0.0521673397533149
494,5.817,0.0450826098533259
495,5.825,0.0457951866889752
496,5.832,0.0516823398128206
497,5.840,0.0535962241933863
498,5.847,0.0422211102044099
499,5.855,0.0419375717776595
500,5.862,0.035699726389149
501,5.870,0.0411839564855069
502,5.877,0.0295551502199643
503,5.885,0.0303013039745708
504,5.893,0.035587803325958
505,5.900,0.03295761134097
506,5.908,0.0359161109779848
507,5.915,0.0342894957929426
508,5.923,0.0184076131261429
509,5.930,0.0304468039567191
510,5.938,0.0293424963999014
511,5.945,0.0259586891227608
512,5.953,0.0287119964772589
513,5.960,0.0264660736758933
514,5.968,0.0234404202009638
515,5.975,0.0364682647563937
516,5.983,0.0221271895928564
517,5.991,0.0271040351360818
518,5.998,0.0304729193381303
519,6.006,0.0206908436152388
520,6.013,0.0148260751040316
521,6.021,0.0312489192429211
522,6.028,0.0299244963284945
523,6.036,0.035822841758659
524,6.043,0.0232538817623122
525,6.051,0.0385798798819301
526,6.058,0.0201013821490997
527,6.066,0.0352557649051581
528,6.073,0.0240112278232378
529,6.081,0.0233247663689998
530,6.088,0.0278315350468232
531,6.096,0.0195902668271942
532,6.104,0.0211795743245061
533,6.111,0.0236493432522537
534,6.119,0.0169712671485253
535,6.126,0.0193888053134504
536,6.134,0.0649676074135897
537,6.141,0.0663405303220657
538,6.149,0.0430903793285265
539,6.156,0.0340395342851494
540,6.164,0.0317451114897344
541,6.171,0.0245708431391927
542,6.179,0.0367592647206902
543,6.186,0.0260706121859518
544,6.194,0.0210788435676342
545,6.201,0.0336515343327541
546,6.209,0.02414926626784
547,6.217,0.0242052277994355
548,6.224,0.0268689967033808
549,6.232,0.0282754965308141
550,6.239,0.0240746508923794
551,6.247,0.0279658427226524
552,6.254,0.0307415346897886
553,6.262,0.0203961128821692
554,6.269,0.0201722667557873
555,6.277,0.049089455515563
556,6.284,0.0396879182075208
557,6.292,0.0491342247408394
558,6.299,0.0385500337317459
559,6.307,0.0262683429309225
560,6.315,0.0269809197665718
561,6.322,0.0329464190346509
562,6.330,0.0201013821490997
563,6.337,0.0380426491786134
564,6.345,0.0268093044030123
565,6.352,0.0269212274662032
566,6.360,0.0226271126084427
567,6.367,0.0190418438175584
568,6.375,0.0328829959655093
569,6.382,0.022656958758627
570,6.390,0.0206908436152388
571,6.397,0.0218921511601553
572,6.405,0.0180494593239317
573,6.412,0.0267160351836865
574,6.420,0.0395013797688692
575,6.428,0.0238433432284514
576,6.435,0.0192171899498909
577,6.443,0.018993343823509
578,6.450,0.0124309215517446
579,6.458,0.0100879987622802
580,6.465,0.0199446898606323
581,6.473,0.0198364975662143
582,6.480,0.0200416898487311
583,6.488,0.030901957747029
584,6.495,0.022433112632245
585,6.503,0.0157587672972897
586,6.510,0.0307266116146965
587,6.518,0.00285403811136994
588,6.526,0.0308833039031639
589,6.533,0.0255408430201812
590,6.541,0.0420532256096235
591,6.548,0.0351251879981019
592,6.556,0.0369010339340654
593,6.563,0.0435492638876095
594,6.571,0.0503952245861244
595,6.578,0.0579686851953806
596,6.586,0.0569352622452505
597,6.593,0.05264114738749
598,6.601,0.0436761100258927
599,6.608,0.0702205298460196
600,6.616,0.0969589496423443
601,6.623,0.0652921842968435
602,6.631,0.0543274548729007
603,6.639,0.0499960323274099
604,6.646,0.0362929186240611
605,6.654,0.0374643800187934
606,6.661,0.033871649690363
607,6.669,0.0287679580088544
608,6.676,0.0386992644826672
609,6.684,0.0270704582171245
610,6.691,0.0332784574554508
611,6.699,0.0361959186359623
612,6.706,0.0224890741638405
613,6.714,0.0329277651907857
614,6.721,0.0287903426214926
615,6.729,0.0235971124894312
616,6.737,0.0328568805840981
617,6.744,0.0336925727892574
618,6.752,0.0330322267164306
619,6.759,0.0228546895035977
620,6.767,0.0222950741876428
621,6.774,0.0284732272757848
622,6.782,0.0304094962689887
623,6.789,0.0303423424310741
624,6.797,0.0267234967212325
625,6.804,0.0227912664344562
626,6.812,0.0182994208317249
627,6.819,0.0235821894143391
628,6.827,0.0270629966795785
629,6.834,0.0255557660952733
630,6.842,0.0476381864628533
631,6.850,0.0178330747350958
632,6.857,0.0149753058549529
633,6.865,0.019567882214556
634,6.872,0.0305438039448179
635,6.880,0.0465674558249929
636,6.887,0.0364197647623443
637,6.895,0.047839647976597
638,6.902,0.043489571587241
639,6.910,0.0411802257167338
640,6.917,0.0574911467924324
641,6.925,0.0482686863854958
642,6.932,0.0468286096391052
643,6.940,0.0470263403840759
644,6.948,0.0484776094367856
645,6.955,0.0402736489048869
646,6.963,0.0497647246634819
647,6.970,0.0487424940196709
648,6.978,0.0562450700222395
649,6.985,0.0555921854869588
650,6.993,0.0766822213609121
651,7.000,0.0740184524569668
652,7.008,0.0610241848204943
653,7.015,0.0614196463104357
654,7.023,0.0689781838445997
655,7.030,0.139097982933747
656,7.038,0.151293866052791
657,7.045,0.0851100280191927
658,7.053,0.094183257675208
659,7.061,0.0762792983334245
660,7.068,0.0883744506955962
661,7.076,0.086624720141044
662,7.083,0.0706383759485993
663,7.091,0.0756935676360584
664,7.098,0.0689334146193234
665,7.106,0.0626992999995859
666,7.113,0.0754846445847686
667,7.121,0.0854942972028151
668,7.128,0.0862329894198755
669,7.136,0.0609794155952179
670,7.143,0.0668217994937869
671,7.151,0.0630201461140667
672,7.158,0.0793198748834461
673,7.166,0.104028756467241
674,7.174,0.10789010214733
675,7.181,0.0904226427519911
676,7.189,0.0844347588712738
677,7.196,0.0715113758414889
678,7.204,0.0658891073005288
679,7.211,0.0714031835470709
680,7.219,0.0824164129650632
681,7.226,0.124753177001437
682,7.234,0.206397320830483
683,7.241,0.160840903342981
684,7.249,0.128629445756618
685,7.256,0.131099214684366
686,7.264,0.12617086913519
687,7.272,0.102943102754289
688,7.279,0.0992944108942627
689,7.287,0.079879490199401
690,7.294,0.0739027986250028
691,7.302,0.0986788340467123
692,7.309,0.107897563684876
693,7.317,0.125864946095801
694,7.324,0.174163478631481
695,7.332,0.209355820467497
696,7.339,0.176353439901251
697,7.347,0.126790176751513
