#"+EI TIC Scan IPA-PA.d "
#Point,X(Minutes),Y(Counts)
0,2.095,0.287476977246907
1,2.102,0.25895718747303
2,2.110,0.264601499082035
3,2.117,0.239601580083246
4,2.125,0.219804147909977
5,2.132,0.231645052107342
6,2.140,0.201354281326334
7,2.147,0.20265030069122
8,2.155,0.190198205543369
9,2.162,0.194837365769949
10,2.170,0.166873538848622
11,2.177,0.174697519389481
12,2.185,0.166726263920794
13,2.193,0.17638381731311
14,2.200,0.153791843384307
15,2.208,0.151759449380282
16,2.215,0.151700539409151
17,2.223,0.158361048020168
18,2.230,0.143574645266245
19,2.238,0.127525360006197
20,2.245,0.14526462506307
21,2.253,0.150835299208162
22,2.260,0.12909751986076
23,2.268,0.125404601045475
24,2.275,0.127282356375281
25,2.283,0.13107468576685
26,2.290,0.1228162441889
27,2.298,0.131932562221448
28,2.306,0.11329860197802
29,2.313,0.117565893011834
30,2.321,0.113629970565633
31,2.328,0.111604940307999
32,2.336,0.105080661005222
33,2.343,0.107720564086538
34,2.351,0.112208767512093
35,2.358,0.106163131724757
36,2.366,0.0976690502622819
37,2.373,0.0901727564358407
38,2.381,0.0995026231137395
39,2.388,0.106236769188671
40,2.396,0.097046813692209
41,2.404,0.106192586710323
42,2.411,0.137131367173774
43,2.419,0.191247539404143
44,2.426,0.368224138301761
45,2.434,0.234877736773165
46,2.441,0.102002615013619
47,2.449,0.0909680410461115
48,2.456,0.101538698990961
49,2.464,0.102363438586797
50,2.471,0.0958686142695856
51,2.479,0.0886558246792131
52,2.486,0.0916970519388597
53,2.494,0.0896425666956602
54,2.501,0.092901024473853
55,2.509,0.0771646984354395
56,2.517,0.0753237618375905
57,2.524,0.0933097123985754
58,2.532,0.0987552028550128
59,2.539,0.0746242059304079
60,2.547,0.096461395854093
61,2.554,0.0773119733632674
62,2.562,0.0886889615379744
63,2.569,0.0780704392415812
64,2.577,0.0843480330402464
65,2.584,0.0855556874484354
66,2.592,0.0751323044314142
67,2.599,0.0760527727303387
68,2.607,0.0814835356939933
69,2.615,0.0749445288984336
70,2.622,0.07542685428707
71,2.630,0.074524795354124
72,2.637,0.0880409518555315
73,2.645,0.0881845449101638
74,2.652,0.0653642948432273
75,2.660,0.0708245127924475
76,2.667,0.070415824867725
77,2.675,0.0811263939940106
78,2.682,0.0670837296256183
79,2.690,0.0796131441105787
80,2.697,0.069587403398693
81,2.705,0.0708650133976002
82,2.712,0.0697015414677596
83,2.720,0.0727427687274062
84,2.728,0.067404052593644
85,2.735,0.0791970924394649
86,2.743,0.0871683479081511
87,2.750,0.0895615654853548
88,2.758,0.0830741049145349
89,2.765,0.0818480411403674
90,2.773,0.0717044804862193
91,2.780,0.0796904634476884
92,2.788,0.0943627281325451
93,2.795,0.079414322958011
94,2.803,0.0751543956705884
95,2.810,0.0606919977578865
96,2.818,0.0847125384866205
97,2.826,0.072562356940817
98,2.833,0.0672420501730333
99,2.841,0.0675218725359064
100,2.848,0.0678863779822805
101,2.856,0.0687442544368781
102,2.863,0.0790903181167896
103,2.871,0.0714982955872602
104,2.878,0.0667781341503754
105,2.886,0.0630447147299375
106,2.893,0.0591971572404331
107,2.901,0.0790350900188541
108,2.908,0.0751175769386314
109,2.916,0.0695726759059102
110,2.923,0.0691271692492307
111,2.931,0.0661558975803024
112,2.939,0.0787037214312413
113,2.946,0.0634386751618772
114,2.954,0.057150035743625
115,2.961,0.133416357119314
116,2.969,2.29572525685484
117,2.976,18.5102124853204
118,2.984,57.4857452597355
119,2.991,100
120,2.999,36.4177538747297
121,3.006,0.249741458864198
122,3.014,0.107462832962839
123,3.021,0.101303059106436
124,3.029,0.0847824940773388
125,3.036,0.084999724595885
126,3.044,0.0843627605330292
127,3.052,0.10562189636499
128,3.059,0.0873045772163919
129,3.067,0.0719253928779612
130,3.074,0.0929709800645712
131,3.082,0.0741197893025973
132,3.089,0.0671426395967495
133,3.097,0.0697678151852822
134,3.104,0.0629084854216967
135,3.112,0.0649077425669608
136,3.119,0.0566824378477713
137,3.127,0.0662479444101948
138,3.134,0.0702427768275272
139,3.142,0.093729445942885
140,3.150,0.0573157200374314
141,3.157,0.0484203143966249
142,3.165,0.0456368182606772
143,3.172,0.0748119814633885
144,3.180,0.0536375287149291
145,3.187,0.0591971572404331
146,3.195,0.0753495349499604
147,3.202,0.0541677184551096
148,3.210,0.0513547673335963
149,3.217,0.0483356313131239
150,3.225,0.0541971734406752
151,3.232,0.0534681625479269
152,3.240,0.0489983684883495
153,3.247,0.047102203792565
154,3.255,0.061027048218695
155,3.263,0.0622310207536883
156,3.270,0.0659644401741261
157,3.278,0.0518150014830585
158,3.285,0.04662724215032
159,3.293,0.041859216361891
160,3.300,0.0366199108044127
161,3.308,0.0539247148241935
162,3.315,0.0582619614487258
163,3.323,0.0776396600776846
164,3.330,0.0570174883085799
165,3.338,0.0348820666560432
166,3.345,0.0380963419558876
167,3.353,0.0461338711420964
168,3.361,0.0382178437713457
169,3.368,0.0381000238290833
170,3.376,0.0395322725022099
171,3.383,0.0249336452812671
172,3.391,0.0465756959255802
173,3.398,0.0424299067072242
174,3.406,0.0325146221912094
175,3.413,0.0431957363319294
176,3.421,0.0398930960753883
177,3.428,0.0387922159898746
178,3.436,0.0347568829673895
179,3.443,0.033409317377764
180,3.451,0.0364726358765848
181,3.458,0.0361449491621677
182,3.466,0.0291493900903414
183,3.474,0.031214920953128
184,3.481,0.0286118366037695
185,3.489,0.0552133704426878
186,3.496,0.10317345068985
187,3.504,0.0590241092002353
188,3.511,0.0466051509111458
189,3.519,0.029263528159408
190,3.526,0.0346059261663659
191,3.534,0.0334314086169382
192,3.541,0.031336422768586
193,3.549,0.0357399431106409
194,3.556,0.0331331768880867
195,3.564,0.0328312632860394
196,3.572,0.0319144768603106
197,3.579,0.0262922564904797
198,3.587,0.0332399512107619
199,3.594,0.0303239076397691
200,3.602,0.0283209686213093
201,3.609,0.0312738309242592
202,3.617,0.0374188772878792
203,3.624,0.0320470242953557
204,3.632,0.0246133223132414
205,3.639,0.0282583767769825
206,3.647,0.0266604438100495
207,3.654,0.0251361483070305
208,3.662,0.0334350904901339
209,3.669,0.036689866395131
210,3.677,0.0299409928274165
211,3.685,0.0190168750557804
212,3.692,0.0270654498615763
213,3.700,0.027691368304845
214,3.707,0.0280190550192621
215,3.715,0.0210198140742401
216,3.722,0.0269439480461183
217,3.730,0.10208729809712
218,3.737,0.33417049311475
219,3.745,0.167576776629001
220,3.752,0.115802275751095
221,3.760,0.0928310688831347
222,3.767,0.0830299224361865
223,3.775,0.0886337334400389
224,3.782,0.0727795874593632
225,3.790,0.0779931199044716
226,3.798,0.0575439961755647
227,3.805,0.0481625832729261
228,3.813,0.0465683321791888
229,3.820,0.0516861359212091
230,3.828,0.0578606372703947
231,3.835,0.0484644968749733
232,3.843,0.0508135319738287
233,3.850,0.0458282756668535
234,3.858,0.0464394666173394
235,3.865,0.0358688086724903
236,3.873,0.0435271049195422
237,3.880,0.0540683078788257
238,3.888,0.0381736612929973
239,3.896,0.0379232939156898
240,3.903,0.0408540649794655
241,3.911,0.0406221069681365
242,3.918,0.032190617349988
243,3.926,0.0341825107488606
244,3.933,0.0321022523932912
245,3.941,0.0433908756113014
246,3.948,0.0396316830784937
247,3.956,0.0357325793642495
248,3.963,0.0435565599051078
249,3.971,0.0934348960872292
250,3.978,0.087621218311222
251,3.986,0.0366309564239998
252,3.993,0.0332767699427189
253,4.001,0.0356368506611613
254,4.009,0.033214178098392
255,4.016,0.0297421716748488
256,4.024,0.0339468708643359
257,4.031,0.0432399188102778
258,4.039,0.031837157523201
259,4.046,0.0398820504558012
260,4.054,0.0264248039255248
261,4.061,0.0336265478963102
262,4.069,0.0362038591332988
263,4.076,0.0394623169114916
264,4.084,0.0182142266991182
265,4.091,0.0300698583892659
266,4.099,0.0350256597106755
267,4.107,0.0379490670280597
268,4.114,0.0414394828175814
269,4.122,0.028276786142961
270,4.129,0.0178791762383097
271,4.137,0.0312443759386936
272,4.144,0.0309940085613861
273,4.152,0.033957916483923
274,4.159,0.020971949722696
275,4.167,0.0290794344996231
276,4.174,0.0251582395462047
277,4.182,0.0292009363150812
278,4.189,0.0316714732293945
279,4.197,0.0132436978849259
280,4.204,0.0327428983293427
281,4.212,0.0265941700925269
282,4.220,0.0214763663505067
283,4.227,0.0233393941875299
284,4.235,0.0233762129194869
285,4.242,0.0207105367258015
286,4.250,0.0169807991785594
287,4.257,0.0276950501780407
288,4.265,0.0299557203201993
289,4.272,0.0220654660618184
290,4.280,0.0256516105544282
291,4.287,0.0240352682215168
292,4.295,0.0143408960972439
293,4.302,0.0231074361762009
294,4.310,0.0138327975962375
295,4.318,0.014948405174534
296,4.325,0.0186118690042536
297,4.333,0.0232252561184632
298,4.340,0.0284571979295502
299,4.348,0.0200441176773801
300,4.355,0.0185198221743611
301,4.363,0.0260382072399765
302,4.370,0.0230522080782654
303,4.378,0.0292929831449736
304,4.385,0.0202944850546876
305,4.393,0.0209388128639348
306,4.400,0.0209167216247606
307,4.408,0.0231847555133106
308,4.415,0.0763473225859946
309,4.423,0.161567959573621
310,4.431,0.071074880169755
311,4.438,0.0314431970912613
312,4.446,0.019046330041346
313,4.453,0.0218776905288378
314,4.461,0.0118850866757133
315,4.468,0.0334608636025038
316,4.476,0.0159830115425252
317,4.483,0.00633282189660063
318,4.491,0.0201030276485113
319,4.498,0.0248968265493101
320,4.506,0.00998524010673309
321,4.513,0.0204086231237542
322,4.521,0.019289333672262
323,4.529,0.0231111180493966
324,4.536,0.0124189582890895
325,4.544,0.0262812108708926
326,4.551,0.0281074199759588
327,4.559,0.0211781346216551
328,4.566,0.0238180377029706
329,4.574,0.0210382234402186
330,4.581,0.0204159868701456
331,4.589,0.0204123049969499
332,4.596,0.0254343800358821
333,4.604,0.0175441257775012
334,4.611,0.017021299783712
335,4.619,0.0248195072122005
336,4.626,0.0129528299024657
337,4.634,0.0196832941042017
338,4.642,0.0263585302080023
339,4.649,0.0216457325175088
340,4.657,0.0206000805299305
341,4.664,0.0300219940377218
342,4.672,0.015254000649777
343,4.679,0.0194329267268943
344,4.687,0.0175514895238926
345,4.694,0.0109093902788533
346,4.702,0.0157768266435661
347,4.709,0.0134719740230591
348,4.717,0.0228938875308504
349,4.724,0.0246869597771554
350,4.732,0.00885122316245809
351,4.739,0.0223121515659301
352,4.747,0.0222053772432549
353,4.755,0.0183909566125117
354,4.762,0.0148048121199018
355,4.770,0.01650951940951
356,4.777,0.0161855145682886
357,4.785,0.0316199270046548
358,4.792,0.0151877269322544
359,4.800,0.0171023009940174
360,4.807,0.019558110415548
361,4.815,0.0172569396682367
362,4.822,0.00324373028540997
363,4.830,0.0166567943373379
364,4.837,0.0243960917946952
365,4.845,0.0226766570123042
366,4.853,0.0351729346385034
367,4.860,0.0200551632969672
368,4.868,0.0205632617979736
369,4.875,0.0164137907064219
370,4.883,0.0274410009275375
371,4.890,0.0278533707254557
372,4.898,0.279951228434901
373,4.905,0.795921574333633
374,4.913,0.345333932644106
375,4.920,0.122411238137373
376,4.928,0.0879930875039875
377,4.935,0.0610123207259122
378,4.943,0.0481404920337519
379,4.950,0.0503348884583879
380,4.958,0.0504306171614761
381,4.966,0.0435086955535637
382,4.973,0.0359424461364043
383,4.981,0.037396786048705
384,4.988,0.0416456677165405
385,4.996,0.030239224556268
386,5.003,0.0221906497504721
387,5.011,0.0335345010664178
388,5.018,0.0258430679606045
389,5.026,0.0268629468358129
390,5.033,0.0264248039255248
391,5.041,0.0199336614815092
392,5.048,0.0223047878195387
393,5.056,0.0203975775041671
394,5.064,0.0208909485123907
395,5.071,0.0223784252834527
396,5.079,0.019911570242335
397,5.086,0.0192819699258706
398,5.094,0.02006989078975
399,5.101,0.0149115864425771
400,5.109,0.0157215985456306
401,5.116,0.0173195315125636
402,5.124,0.017996996180572
403,5.131,0.0122127733901304
404,5.139,0.0273673634636235
405,5.146,0.0184903671887956
406,5.154,0.0202871213082962
407,5.161,0.0138107063570634
408,5.169,0.0252392407565101
409,5.177,0.0151656356930802
410,5.184,0.0208283566680638
411,5.192,0.0199262977351178
412,5.199,0.0188696001279525
413,5.207,0.0191936049691739
414,5.214,0.0222900603267559
415,5.222,0.0158615097270672
416,5.229,0.0208430841608466
417,5.237,0.0181405892352042
418,5.244,0.0251582395462047
419,5.252,0.0267193537811807
420,5.259,0.0274704559131031
421,5.267,0.0212296808463949
422,5.275,0.0208246747948681
423,5.282,0.0185235040475568
424,5.290,0.0244329105266522
425,5.297,0.0138659344549988
426,5.305,0.0101104237953868
427,5.312,0.0234903509885535
428,5.320,0.00699187719863058
429,5.327,0.0327060795973857
430,5.335,0.0132142428993603
431,5.342,0.0134425190374935
432,5.350,0.0125515057241346
433,5.357,0.00251471939266176
434,5.365,0.0125367782313518
435,5.372,0.0119182235344746
436,5.380,0.0228055225741537
437,5.388,0.0187701895516686
438,5.395,0.0158946465858284
439,5.403,0.00940718601500849
440,5.410,0.0170728460084518
441,5.418,0.00755520379757238
442,5.425,0.0131921516601861
443,5.433,0.0272974078729053
444,5.440,0.0163806538476606
445,5.448,0.013070649844728
446,5.455,0.0197753409340942
447,5.463,0.0199888895794447
448,5.470,0.00646536933164576
449,5.478,0.0229196606432203
450,5.485,0.0251103751946606
451,5.493,0.0158062816291317
452,5.501,0.0210934515381541
453,5.508,0.014046346241588
454,5.516,0.0192709243062835
455,5.523,0.0210897696649584
456,5.531,0.0142451673941557
457,5.538,0.0220249654566657
458,5.546,0.0149336776817513
459,5.553,0.00646536933164576
460,5.561,0.00822530471918942
461,5.568,0.0241935887689318
462,5.576,0.0282436492841997
463,5.583,0.0138180701034547
464,5.591,0.00729747267387352
465,5.599,0.0213585464082443
466,5.606,0.0159646021765467
467,5.614,0.0153313199868866
468,5.621,0.029215663807864
469,5.629,0.0362075410064945
470,5.636,0.0291346625975586
471,5.644,0.0269402661729226
472,5.651,0.0317119738345472
473,5.659,0.010754751604634
474,5.666,0.0180743155176817
475,5.674,0.0218482355432722
476,5.681,0.00972014523664283
477,5.689,0.0144992166446589
478,5.696,0.0119881791251928
479,5.704,0.0186229146238407
480,5.712,0.0174005327228689
481,5.719,0.0158651916002629
482,5.727,0.0324851672056438
483,5.734,0.0289284776985995
484,5.742,0.0165868387466197
485,5.749,0.0159056922054155
486,5.757,0.00899481621709031
487,5.764,0.0249373271544628
488,5.772,0.0142635767601342
489,5.779,0.0138401613426289
490,5.787,0.022801840700958
491,5.794,0.00781293492127124
492,5.802,0.0178202662671785
493,5.810,0.0115647637076875
494,5.817,0.0151140894683405
495,5.825,0.0159719659229381
496,5.832,0.00580631402961581
497,5.840,0.0226582476463257
498,5.847,0.0129417842828786
499,5.855,0.0183725472465332
500,5.862,0.0118335404509735
501,5.870,0.0178202662671785
502,5.877,0.0144808072786804
503,5.885,0.0161634233291144
504,5.892,0.014547080996203
505,5.900,0.0177282194372861
506,5.907,0.0152687281425598
507,5.915,0.0270617679883806
508,5.923,0.0151619538198845
509,5.930,0.0132584253777086
510,5.938,0.0207399917113671
511,5.945,0.0197090672165716
512,5.953,0.0126140975684615
513,5.960,0.0121980458973476
514,5.968,0.0220433748226442
515,5.975,0.0118114492117993
516,5.983,0.011583173073666
517,5.990,0.016815114884753
518,5.998,0.00746683884087563
519,6.005,0.0130448767323582
520,6.013,0.0255006537534046
521,6.021,0.0239432213916244
522,6.028,0.0339984170890757
523,6.036,0.0217046424886399
524,6.043,0.0223121515659301
525,6.051,0.019716430962963
526,6.058,0.026288574617284
527,6.066,0.0159388290641768
528,6.073,0.0290352520212747
529,6.081,0.0253901975575337
530,6.088,0.0170286635301034
531,6.096,0.0250588289699209
532,6.103,0.0153460474796694
533,6.111,0.0133320628416226
534,6.118,0.0115463543417091
535,6.126,0.0266273069512882
536,6.134,0.0435160592999551
537,6.141,0.0446648037370129
538,6.149,0.0333982717581769
539,6.156,0.036067629825058
540,6.164,0.0268445374698344
541,6.171,0.0156295517157382
542,6.179,0.0202024382247951
543,6.186,0.0279270081893696
544,6.194,0.0261155265770862
545,6.201,0.0247863703534392
546,6.209,0.0227981588277623
547,6.216,0.0224005165226269
548,6.224,0.0141273474518934
549,6.232,0.0193961079949373
550,6.239,0.0177797656620258
551,6.247,0.00824371408516791
552,6.254,0.0122495921220874
553,6.262,0.0128313280870077
554,6.269,0.0181369073620085
555,6.277,0.00876285820576134
556,6.284,0.0119476785200401
557,6.292,0.0200367539309887
558,6.299,0.0221869678772764
559,6.307,0.0247090510163295
560,6.314,0.0115905368200574
561,6.322,0.00712074276048001
562,6.329,0.0065758255275167
563,6.337,0.0270949048471419
564,6.345,0.0295028499171284
565,6.352,0.0213806376474185
566,6.360,0.0130411948591625
567,6.367,0.0168298423775357
568,6.375,0.00979746457375249
569,6.382,0.0223158334391258
570,6.390,0.0138107063570634
571,6.397,0.0182694547970537
572,6.405,0.0246501410451984
573,6.412,0.0175478076506969
574,6.420,0.0170470728960819
575,6.427,0.0163548807352907
576,6.435,0.0102613805964104
577,6.442,0.0126582800468099
578,6.450,0.00475698016884187
579,6.458,0.00981955581292667
580,6.465,0.0144403066735277
581,6.473,0
582,6.480,0.0198637058907909
583,6.488,0.0173673958641077
584,6.495,0.0102576987232147
585,6.503,0.0136707951756268
586,6.510,0.0182952279094236
587,6.518,0.0125846425828959
588,6.525,0.0166825674497078
589,6.533,0.0165242469022928
590,6.540,0.0197569315681157
591,6.548,0.00202134838443822
592,6.556,0.0151619538198845
593,6.563,0.0204454418557112
594,6.571,0.0287738390243802
595,6.578,0.0191972868423696
596,6.586,0.0257915217358648
597,6.593,0.019631747879462
598,6.601,0.0266309888244839
599,6.608,0.0195286554299824
600,6.616,0.0282326036646126
601,6.623,0.0366420020435869
602,6.631,0.0248673715637446
603,6.638,0.0174594426940001
604,6.646,0.0128607830725733
605,6.653,0.0185713683991009
606,6.661,0.0195433829227652
607,6.669,0.0145286716302245
608,6.676,0.0190905125196943
609,6.684,0.0138327975962375
610,6.691,0.0177503106764603
611,6.699,0.00790129987796799
612,6.706,0.0158173272487188
613,6.714,0.0161118771043746
614,6.721,0.0126656437932013
615,6.729,0.0148305852322717
616,6.736,0.00618922884196841
617,6.744,0.0138659344549988
618,6.751,0.0156037786033683
619,6.759,0.00718333460480688
620,6.767,0.00873340322019575
621,6.774,0.0129417842828786
622,6.782,0.0215500038144206
623,6.789,0.0157694628971747
624,6.797,0.00994473950158041
625,6.804,0.0179859505609849
626,6.812,0.00715756149243699
627,6.819,0.0183946384857074
628,6.827,0.0111855307685306
629,6.834,0.0134388371642978
630,6.842,0.0217304156010098
631,6.849,0.0328754457643878
632,6.857,0.016741477420839
633,6.864,0.0159572384301553
634,6.872,0.00865608388308609
635,6.880,0.0223416065514957
636,6.887,0.0233614854267041
637,6.895,0.0164211544528133
638,6.902,0.0137002501611924
639,6.910,0.018497730935187
640,6.917,0.00967228088509875
641,6.925,0.0172827127806066
642,6.932,0.0176914007053291
643,6.940,0.0177355831836775
644,6.947,0.0167819780259917
645,6.955,0.0135971577117129
646,6.962,0.0147127652900094
647,6.970,0.0048784819842999
648,6.978,0.017912313097071
649,6.985,0.0242377712472802
650,6.993,0.0157584172775876
651,7.000,0.0235750340720546
652,7.008,0.0166420668445551
653,7.015,0.0321685261108138
654,7.023,0.0339174158787703
655,7.030,0.0877979482246155
656,7.038,0.0925991108718057
657,7.045,0.0598304394300932
658,7.053,0.0390941295919218
659,7.060,0.0257547030039078
660,7.068,0.0400403710032162
661,7.075,0.0218813724020335
662,7.083,0.0258209767214304
663,7.091,0.0261744365482174
664,7.098,0.0274815015326902
665,7.106,0.0171538472187572
666,7.113,0.0220286473298614
667,7.121,0.0182142266991182
668,7.128,0.0253018326008369
669,7.136,0.0207731285701283
670,7.143,0.0295875330006295
671,7.151,0.0276066852213439
672,7.158,0.0393592244620121
673,7.166,0.0473157524379155
674,7.173,0.063331900839202
675,7.181,0.0437296079453056
676,7.188,0.0307289136912958
677,7.196,0.0354196201426151
678,7.204,0.0341714651292735
679,7.211,0.0254454256554692
680,7.219,0.0463326922946641
681,7.226,0.071465158728499
682,7.234,0.136943591640793
683,7.241,0.150713797392704
684,7.249,0.101115283573455
685,7.256,0.0591897934940417
686,7.264,0.0629894866320021
687,7.271,0.0448893980019505
688,7.279,0.0454527246008923
689,7.286,0.0362443597384515
690,7.294,0.0497678799862504
691,7.302,0.0416530314629319
692,7.309,0.0352097533704604
693,7.317,0.0330632212973684
694,7.324,0.0371316911786147
695,7.332,0.0332620424499361
