#"+EI TIC Scan IPA-TPU.d "
#Point,X(Minutes),Y(Counts)
0,2.095,0.238956810411659
1,2.102,0.214556677177793
2,2.110,0.226999831264397
3,2.117,0.202950621295018
4,2.125,0.177413642902241
5,2.132,0.199569329423658
6,2.140,0.182450853927899
7,2.148,0.164246709582632
8,2.155,0.162590790428334
9,2.163,0.166220652945372
10,2.170,0.159319162077126
11,2.178,0.158599038294794
12,2.185,0.147895878727938
13,2.193,0.153817708816157
14,2.200,0.131420762550405
15,2.208,0.145534457593994
16,2.215,0.130185220223357
17,2.223,0.13300722814194
18,2.230,0.109751250968329
19,2.238,0.122516084714046
20,2.245,0.131175847355398
21,2.253,0.113381113485367
22,2.261,0.114740941135254
23,2.268,0.113552919666939
24,2.276,0.118352526398934
25,2.283,0.108062432757985
26,2.291,0.100002164026798
27,2.298,0.10675012596683
28,2.306,0.0930641186518347
29,2.313,0.0935649153938631
30,2.321,0.103675891951897
31,2.328,0.115720601915281
32,2.336,0.104085302427132
33,2.343,0.0949283984944222
34,2.351,0.0943069718802264
35,2.359,0.0845944394454126
36,2.366,0.0976078438368078
37,2.374,0.0994246028206627
38,2.381,0.0904906813789296
39,2.389,0.0983023794644385
40,2.396,0.104385049382214
41,2.404,0.104311940368779
42,2.411,0.130890722203003
43,2.419,0.26128795856532
44,2.426,0.30466353623619
45,2.434,0.116696607244635
46,2.441,0.0957252867408616
47,2.449,0.0744469083806617
48,2.456,0.0779195865188149
49,2.464,0.0858226708711173
50,2.472,0.0804381920316439
51,2.479,0.0834502833851579
52,2.487,0.0705063325565257
53,2.494,0.0789979444669783
54,2.502,0.079367144984824
55,2.509,0.075061024093514
56,2.517,0.0797436564040133
57,2.524,0.0804966792423918
58,2.532,0.0664012614521614
59,2.539,0.0676587364832401
60,2.547,0.067293191416066
61,2.554,0.0750975786002314
62,2.562,0.0681595332252685
63,2.570,0.0720233445852979
64,2.577,0.0653484916587002
65,2.585,0.0622669467424232
66,2.592,0.070009191265169
67,2.600,0.0803358394128352
68,2.607,0.0723925451031437
69,2.615,0.0789284909042152
70,2.622,0.0629249278633364
71,2.630,0.0585310761559047
72,2.637,0.0667668065193354
73,2.645,0.0631881203117017
74,2.652,0.0592987207969701
75,2.660,0.0669166799968768
76,2.667,0.0632941283811822
77,2.675,0.0574636845597565
78,2.683,0.0646174015243522
79,2.690,0.0587394368441939
80,2.698,0.0498932462185825
81,2.705,0.0590026292925592
82,2.713,0.0616272428748687
83,2.720,0.0585859079159808
84,2.728,0.0647307204951761
85,2.735,0.0617844272537535
86,2.743,0.0707146932448149
87,2.750,0.0762051801537687
88,2.758,0.063085767692893
89,2.765,0.0663464296920853
90,2.773,0.0702321737561452
91,2.780,0.0668910918421746
92,2.788,0.082646084237375
93,2.796,0.0667485292659767
94,2.803,0.0580814557232806
95,2.811,0.0520134076081918
96,2.818,0.0636560179976845
97,2.826,0.0620403088007753
98,2.833,0.0552594478046972
99,2.841,0.0506937899156936
100,2.848,0.0652059290825023
101,2.856,0.0750135032347814
102,2.863,0.0608522873324597
103,2.871,0.0596825431175029
104,2.878,0.0728969972958438
105,2.886,0.0527956740519442
106,2.894,0.0530588665003095
107,2.901,0.0721001090494044
108,2.909,0.0644126962867347
109,2.916,0.0735220793607114
110,2.924,0.0667156302099311
111,2.931,0.0594997705839158
112,2.939,0.0593169980503288
113,2.946,0.0637949251232106
114,2.954,0.057752465162824
115,2.961,0.330335766303822
116,2.969,5.23728115182373
117,2.976,29.0268371490877
118,2.984,70.108378263696
119,2.991,100
120,2.999,5.58736000720562
121,3.007,0.123649274422285
122,3.014,0.0876028753482548
123,3.022,0.0845651958400386
124,3.029,0.075835979635923
125,3.037,0.0689929759784252
126,3.044,0.0812168030247246
127,3.052,0.0952537336042071
128,3.059,0.0703308709242822
129,3.067,0.0744322865779747
130,3.074,0.067209116050616
131,3.082,0.0695522599312015
132,3.089,0.0563304948515171
133,3.097,0.0563926375129366
134,3.105,0.0495606002074541
135,3.112,0.0496008101648433
136,3.120,0.0509350496600285
137,3.127,0.0620622415048057
138,3.135,0.0860529642634369
139,3.142,0.0834502833851579
140,3.150,0.0600407772833334
141,3.157,0.0499626997813456
142,3.165,0.0631259776502822
143,3.172,0.065337525306685
144,3.180,0.0630674904395343
145,3.187,0.0592804435436114
146,3.195,0.0581070438779828
147,3.202,0.0421217580904628
148,3.210,0.0460988884213161
149,3.218,0.0537095367198793
150,3.225,0.0494838357433476
151,3.233,0.0463182154616205
152,3.240,0.0414820542229082
153,3.248,0.041204239971856
154,3.255,0.0525617252089529
155,3.263,0.0660722708917048
156,3.270,0.0619050571259209
157,3.278,0.0377790826924354
158,3.285,0.0491658115349062
159,3.293,0.0386015590935769
160,3.300,0.0413943234067864
161,3.308,0.0501966486243369
162,3.316,0.0520828611709549
163,3.323,0.0600809872407225
164,3.331,0.0440445251437981
165,3.338,0.0351471582087824
166,3.346,0.0395519762682294
167,3.353,0.0365216076613567
168,3.361,0.0278252905132867
169,3.368,0.0393289937772532
170,3.376,0.0309835998936702
171,3.383,0.0327309053147621
172,3.391,0.0274049136860366
173,3.398,0.0292765044299676
174,3.406,0.0356918203588717
175,3.413,0.0385503827841725
176,3.421,0.0382360140264029
177,3.429,0.0319851933777271
178,3.436,0.0264727737647428
179,3.444,0.0263302111885449
180,3.451,0.0303804505328331
181,3.459,0.0307533065013506
182,3.466,0.0300807035777504
183,3.474,0.0293349916407154
184,3.481,0.0322191422207184
185,3.489,0.0779049647161279
186,3.496,0.0711972127334846
187,3.504,0.0370479925580873
188,3.511,0.018518513103036
189,3.519,0.0266372690449711
190,3.526,0.0170051565249356
191,3.534,0.0259463888680122
192,3.542,0.032464057415725
193,3.549,0.0332536347608209
194,3.557,0.0298906201428199
195,3.564,0.0302780979140244
196,3.572,0.00879135886553527
197,3.579,0.0190375870984232
198,3.587,0.0256100874062121
199,3.594,0.0276644506837301
200,3.602,0.0270539904215495
201,3.609,0.0209603541517585
202,3.617,0.0325737209358773
203,3.624,0.0238298829290746
204,3.632,0.0187707391993861
205,3.640,0.0255333229421056
206,3.647,0.0212125802481086
207,3.655,0.0224992988845612
208,3.662,0.0237713957183268
209,3.670,0.0246706365835749
210,3.677,0.0202438858200974
211,3.685,0.0235337914246636
212,3.692,0.0262973121324993
213,3.700,0.0332207357047753
214,3.707,0.0229525747678569
215,3.715,0.0338165741642689
216,3.722,0.0135617219921563
217,3.730,0.022276316393585
218,3.737,0.0196224592059016
219,3.745,0.0273720146299909
220,3.753,0.0186756974819209
221,3.760,0.032493301021099
222,3.768,0.0211029167279564
223,3.775,0.0322374194740771
224,3.783,0.0203608602415931
225,3.790,0.0161680583211071
226,3.798,0.0353957288544607
227,3.805,0.0261876486123471
228,3.813,0.0200867014412126
229,3.820,0.018054270867725
230,3.828,0.029481209667585
231,3.835,0.0197869544861299
232,3.843,0.0164933934308919
233,3.851,0.0308556591201593
234,3.858,0.0213112774162456
235,3.866,0.0191509060692471
236,3.873,0.018167589838549
237,3.881,0.0159121767740853
238,3.888,0.013649452808278
239,3.896,0.0236617321981746
240,3.903,0.019110696111858
241,3.911,0.0219144267770827
242,3.918,0.0223530808576916
243,3.926,0.0128927745192278
244,3.933,0.0131559669675931
245,3.941,0.0089485432444201
246,3.948,0.012552817606756
247,3.956,0.0197211563740386
248,3.964,0.0416063395457474
249,3.971,0.0863673330212066
250,3.979,0.0454445627510746
251,3.986,0.0345513197492887
252,3.994,0.0211138830799716
253,4.001,0.0190156543943927
254,4.009,0.0239761009559442
255,4.016,0.0269114278453516
256,4.024,0.0193117458988037
257,4.031,0.0245646285140944
258,4.039,0.0182260770492968
259,4.046,0.0225760633486677
260,4.054,0.0154442790881025
261,4.062,0.0246340820768575
262,4.069,0.0134410921199889
263,4.077,0.00941644093040285
264,4.084,0.0156233961710178
265,4.092,0.0226382060100873
266,4.099,0.0214721172458022
267,4.107,0.0195639719951538
268,4.114,0.0230439610346505
269,4.122,0.0208214470262324
270,4.129,0.0172317944665835
271,4.137,0.0177508684619706
272,4.144,0.0239103028438529
273,4.152,0.0266263026929559
274,4.159,0.023318119835031
275,4.167,0.0165957460497007
276,4.175,0.0231426582027874
277,4.182,0.0207446825621258
278,4.190,0.0266043699889254
279,4.197,0.0268602515359473
280,4.205,0.0331110721846231
281,4.212,0.0194798966297037
282,4.220,0.0132436977837149
283,4.227,0.0104143789637879
284,4.235,0.0117230303042709
285,4.242,0.0192532586880558
286,4.250,0.0148813396846545
287,4.257,0.0164166289667854
288,4.265,0.0283845744660629
289,4.273,0.0244805531486444
290,4.280,0.00335935916732928
291,4.288,0.0221520310707458
292,4.295,0.0162594445879006
293,4.303,0.0129695389833344
294,4.310,0.0197540554300842
295,4.318,0.0262278585697362
296,4.325,0.0238920255904942
297,4.333,0.0144317192520305
298,4.340,0.0148776842339828
299,4.348,0.0180908253744424
300,4.355,0.0159633530834896
301,4.363,0.00287318422798783
302,4.370,0.0121945834409254
303,4.378,0.0190668307037971
304,4.386,0.0189717889863318
305,4.393,0.019096074309171
306,4.401,0.0194433421229863
307,4.408,0.0324348138103511
308,4.416,0.0976224656394948
309,4.423,0.128419637548906
310,4.431,0.0404621834854927
311,4.438,0.0168699048500812
312,4.446,0.0194360312216428
313,4.453,0.0192276705333536
314,4.461,0.0209786314051172
315,4.468,0.0157549923952004
316,4.476,0.0158865886193831
317,4.483,0.0193665776588798
318,4.491,0.0174986423656205
319,4.499,0.0153273046666068
320,4.506,0.0178422547287641
321,4.514,0.018434437737586
322,4.521,0.0108566884950685
323,4.529,0.0223274927029894
324,4.536,0.00853547731851345
325,4.544,0.0259975651774166
326,4.551,0.0193811994615667
327,4.559,0.0243343351217748
328,4.566,0.0197613663314277
329,4.574,0.00654325670241502
330,4.581,0.00688321361488687
331,4.589,0.00339225822337494
332,4.597,0.0103814799077423
333,4.604,0.0123261796651081
334,4.612,0.0164020071640984
335,4.619,0.00970887698414207
336,4.627,0.0141173504942608
337,4.634,0.0187268737913252
338,4.642,0.0186793529325926
339,4.649,0.025259164141725
340,4.657,0.0206898508020497
341,4.664,0.0148338188259219
342,4.672,0.00978564144824861
343,4.679,0.0138029817364911
344,4.687,0.0138505025952238
345,4.694,0.0116316440374774
346,4.702,0.0113574852370969
347,4.710,0.00865245174000914
348,4.717,0.00857203182523086
349,4.725,0.0115768122774013
350,4.732,0.00874749345747439
351,4.740,0.0158719668166961
352,4.747,0.0212016138960934
353,4.755,0.0184125050335556
354,4.762,0.0111052591407468
355,4.770,0.0146876007990523
356,4.777,0.0135690328934998
357,4.785,0.0197906099368016
358,4.792,0.00948223904249417
359,4.800,0.0103558917530401
360,4.808,0.0133350840505084
361,4.815,0.00673699558801726
362,4.823,0.0185623785110969
363,4.830,0.0112989980263491
364,4.838,0.016661544161792
365,4.845,0.0181602789372055
366,4.853,0.0132034878263257
367,4.860,0.018617210271173
368,4.868,0.0177362466592836
369,4.875,0.0158207905072917
370,4.883,0.0163471754040223
371,4.890,0.0095114826478681
372,4.898,0.0158244459579635
373,4.905,0.0111418136474642
374,4.913,0.0109188311564881
375,4.921,0.00887177878031356
376,4.928,0.0124504649879472
377,4.936,0.0196517028112755
378,4.943,0.0155027662988503
379,4.951,0.014775331615174
380,4.958,0.00903627406054187
381,4.966,0.0132546641357301
382,4.973,0.0193848549122385
383,4.981,0.0197321227260538
384,4.988,0.0138687798485825
385,4.996,0.0184673367936317
386,5.003,0.0120008445553232
387,5.011,0.00766182460796754
388,5.019,0.0120812644701015
389,5.026,0.00624716519800407
390,5.034,0.00512859729245155
391,5.041,0.017871498334138
392,5.049,0.0338275405162842
393,5.056,0.285285992225295
394,5.064,0.441019157193444
395,5.071,0.11586681994215
396,5.079,0.0404877716401949
397,5.086,0.0478535047437514
398,5.094,0.0326175863439381
399,5.101,0.0318133871961553
400,5.109,0.0193519558561928
401,5.116,0.0283407090580021
402,5.124,0.0221410647187306
403,5.132,0.0138797462005977
404,5.139,0.0199331725129995
405,5.147,0.0294848651182568
406,5.154,0.0225614415459807
407,5.162,0.0214611508937869
408,5.169,0.0249265181305967
409,5.177,0.0312175487366616
410,5.184,0.011328241631723
411,5.192,0.0113647961384404
412,5.199,0.0183613287241512
413,5.207,0.0216183352726718
414,5.214,0.0136055874002172
415,5.222,0.0172573826212857
416,5.229,0.0272623511098387
417,5.237,0.0174620878589031
418,5.245,0.0139784433687347
419,5.252,0.0152651620051872
420,5.260,0.0193007795467885
421,5.267,0.0129073963219148
422,5.275,0.0150604567675698
423,5.282,0.0102425727822161
424,5.290,0.0127392455910147
425,5.297,0.00480326218266667
426,5.305,0.00751195113042619
427,5.312,0.0154991108481786
428,5.320,0.00939085277570067
429,5.327,0.0028439406226139
430,5.335,0.00446330527019483
431,5.343,0.0200209033291213
432,5.350,0.00606804811508879
433,5.358,0.00837098203828514
434,5.365,0.0183905723295251
435,5.373,0.0192240150826819
436,5.380,0.0149763814021198
437,5.388,0.00507376553237545
438,5.395,0.0100524893472857
439,5.403,0.01134286343441
440,5.410,0.0167894849353029
441,5.418,0.00607901446710401
442,5.425,0.0139967206220934
443,5.433,0.0186427984258752
444,5.440,0.0140990732409021
445,5.448,0.0107324031722293
446,5.456,0.0125784057614582
447,5.463,0.0117230303042709
448,5.471,0.0234131615524962
449,5.478,0.0159341094781157
450,5.486,0.0220862329586545
451,5.493,0.0112697544209752
452,5.501,0.0193373340535059
453,5.508,0.0120922308221167
454,5.516,0.0153346155679503
455,5.523,0.0135032347814084
456,5.531,0.0146693235456936
457,5.538,0.0137591163284303
458,5.546,0.0235447577766789
459,5.554,0.0216585452300609
460,5.561,0.014142938648963
461,5.569,0.00970887698414207
462,5.576,0.0118107611203927
463,5.584,0.0105386642866271
464,5.591,0.011032150127312
465,5.599,0.0262351694710797
466,5.606,0.0100305566432552
467,5.614,0.0287135650265196
468,5.621,0.0330635513258904
469,5.629,0.0363680787331436
470,5.636,0.0107324031722293
471,5.644,0.00723048142870219
472,5.651,0.0253980712672512
473,5.659,0.0173451134374074
474,5.667,0.0213149328669173
475,5.674,0.012256726102345
476,5.682,0.015268817455859
477,5.689,0.00933236556495283
478,5.697,0.0162923436439462
479,5.704,0.016943013863516
480,5.712,0.0155685644109417
481,5.719,0.0120191218086819
482,5.727,0.0172135172132248
483,5.734,0.0137335281737281
484,5.742,0.0160803275049853
485,5.749,0.0135836546961867
486,5.757,0.0111747127035099
487,5.765,0.0115183250666535
488,5.772,0.0169028039061269
489,5.780,0.015338271018622
490,5.787,0.0200538023851669
491,5.795,0.00750098477841097
492,5.802,0.011905802837858
493,5.810,0.0145523491241979
494,5.817,0.0164970488815637
495,5.825,0.0137554608777585
496,5.832,0.0124943303960081
497,5.840,0.0120118109073384
498,5.847,0.0187743946500579
499,5.855,0.014044241480826
500,5.862,0.00976005329354643
501,5.870,0.0184161604842273
502,5.878,0.014804575220548
503,5.885,0.0170344001303095
504,5.893,0.00843312469970473
505,5.900,0.00988068316571386
506,5.908,0.0125272294520538
507,5.915,0.0142197031130695
508,5.923,0.0152980610612329
509,5.930,0.0119533236965906
510,5.938,0.0182918751613881
511,5.945,0.0157257487898265
512,5.953,0.00196663246139625
513,5.960,0.00973812058951599
514,5.968,0.0163398645026789
515,5.975,0.0177837675180163
516,5.983,0.0109005539031294
517,5.991,0.0142050813103826
518,5.998,0.0102498836835596
519,6.006,0.0107250922708859
520,6.013,0.0143330220838935
521,6.021,0.0151993638930959
522,6.028,0.0108566884950685
523,6.036,0.0154333127360873
524,6.043,0.00751560658109793
525,6.051,0.0103522363023684
526,6.058,0.0110175283246251
527,6.066,0.0184051941322121
528,6.073,0.0161644028704353
529,6.081,0.0139491997633607
530,6.089,0.0215269490058783
531,6.096,0.0136567637096215
532,6.104,0.0182004888945946
533,6.111,0.0116535767415079
534,6.119,0.0144719292094196
535,6.126,0.025540633843449
536,6.134,0.0261547495563014
537,6.141,0.0198856516542669
538,6.149,0.0116864757975535
539,6.156,0.0109773183672359
540,6.164,0.0052419162632755
541,6.171,0.0160291511955809
542,6.179,0.0114488715038904
543,6.186,0.0148374742765936
544,6.194,0.0190229652957362
545,6.202,0.0151920529917524
546,6.209,0.0200428360331517
547,6.217,0.0135690328934998
548,6.224,0.0144061310973283
549,6.232,0.0107982012843207
550,6.239,0.028468649831513
551,6.247,0.0122530706516733
552,6.254,0.0100853884033313
553,6.262,0.00949686084518114
554,6.269,0.0136531082589498
555,6.277,0.0106008069480467
556,6.284,0.0170709546370269
557,6.292,0.00745711937035008
558,6.300,0.0140332751288108
559,6.307,0.00999400213653781
560,6.315,0.00556359592238864
561,6.322,0.018814604607447
562,6.330,0.00347633358882497
563,6.337,0.0212235466001238
564,6.345,0.0142964675771761
565,6.352,0.0119825673019645
566,6.360,0.000142562576197869
567,6.367,0.0133387395011801
568,6.375,0.00586334287747134
569,6.382,0.00931043286092238
570,6.390,0.0147387771084566
571,6.397,0.00697459988168037
572,6.405,0.0109005539031294
573,6.413,0.01854775670841
574,6.420,0.00945299543712025
575,6.428,0.0137993262858194
576,6.435,0.00782997533886759
577,6.443,0.0196480473606038
578,6.450,0.00876211526016135
579,6.458,0.0049604465615515
580,6.465,0.0116645430935231
581,6.473,0.00567325944254085
582,6.480,0.0107433695242446
583,6.488,0.0151299103303328
584,6.495,0.0104582443718488
585,6.503,0.0117120639522557
586,6.511,0.0240272772653486
587,6.518,0.0139820988194064
588,6.526,0.00860127543060478
589,6.533,0.00452910338228615
590,6.541,0.0168333503433638
591,6.548,0.0170965427917291
592,6.556,0.00966501157608119
593,6.563,0.0217608978488696
594,6.571,0.0109736629165642
595,6.578,0.0198819962035952
596,6.586,0.0165080152335789
597,6.593,0.0111235363941055
598,6.601,0.0146729789963653
599,6.608,0.0244805531486444
600,6.616,0.0273976027846931
601,6.624,0.00399906303488382
602,6.631,0.0145633154762131
603,6.639,0.011229544463586
604,6.646,0.00841119199567429
605,6.654,0.0126076493668321
606,6.661,0.0230987927947266
607,6.669,0.00473746407057535
608,6.676,0.0132875631917758
609,6.684,0.0134155039652867
610,6.691,0.0148557515299523
611,6.699,0.00791039525364587
612,6.706,0.0153236492159351
613,6.714,0.0106008069480467
614,6.722,0.0129293290259452
615,6.729,0.00890467783635922
616,6.737,0.00866341809202436
617,6.744,0.0144719292094196
618,6.752,0.0117742066136753
619,6.759,0.0128708418151974
620,6.767,0.0200428360331517
621,6.774,0.0227113150235221
622,6.782,0.0108749657484272
623,6.789,0.00789211800028717
624,6.797,0.00292801598806393
625,6.804,0.0079579161123785
626,6.812,0
627,6.819,0.0105057652305814
628,6.827,0.0114159724478448
629,6.835,0.00846967920642213
630,6.842,0.00796157156305024
631,6.850,0.0124687422413059
632,6.857,0.00919711389009844
633,6.865,0.0148118861218914
634,6.872,0.0204412801563714
635,6.880,0.0105496306386423
636,6.887,0.0119021473871862
637,6.895,0.0718698156570848
638,6.902,0.42414194144202
639,6.910,0.593455105655684
640,6.917,0.262070225009073
641,6.925,0.141016320563723
642,6.932,0.109107891650103
643,6.940,0.0767425314025145
644,6.948,0.0550401207643927
645,6.955,0.0525653806596246
646,6.963,0.0408752494113993
647,6.970,0.0351873681661715
648,6.978,0.0333011556195536
649,6.985,0.0474221615644861
650,6.993,0.0780073173349367
651,7.000,0.117270513000099
652,7.008,0.0737121627956419
653,7.015,0.0579644813017849
654,7.023,0.0727946446770351
655,7.030,0.0828215458696186
656,7.038,0.0741727495802812
657,7.046,0.0499663552320173
658,7.053,0.0485407294700386
659,7.061,0.0317731772387661
660,7.068,0.0212893447122151
661,7.076,0.0314917075370421
662,7.083,0.0291046982483958
663,7.091,0.0327711152721512
664,7.098,0.0316635137186139
665,7.106,0.0265129837221319
666,7.113,0.0217060660887935
667,7.121,0.0170490219329965
668,7.128,0.0157038160857961
669,7.136,0.028073861158965
670,7.143,0.0143476438865804
671,7.151,0.0214684617951304
672,7.159,0.0345732524533192
673,7.166,0.0453458655829376
674,7.174,0.0327638043708077
675,7.181,0.028088482961652
676,7.189,0.0555555393091081
677,7.196,0.0783765178527824
678,7.204,0.0586407396760569
679,7.211,0.0402574782478752
680,7.219,0.0389780705127662
681,7.226,0.0740923296655029
682,7.234,0.0913387459347733
683,7.241,0.0605379185746901
684,7.249,0.0600261554806464
685,7.257,0.0423410851307672
686,7.264,0.0352604771796063
687,7.272,0.0223859799137372
688,7.279,0.0217097215394653
689,7.287,0.015155498485035
690,7.294,0.0146802898977088
691,7.302,0.0188109491567753
692,7.309,0.0340322457539016
693,7.317,0.0321862431646728
