#"+EI TIC Scan IPA-ABS.d "
#Point,X(Minutes),Y(Counts)
0,2.095,0.290591694599332
1,2.102,0.265828339296284
2,2.110,0.259690926331699
3,2.117,0.241012495427871
4,2.125,0.235823625823114
5,2.133,0.231167140238499
6,2.140,0.220841889594352
7,2.148,0.210595371798254
8,2.155,0.200247626054664
9,2.163,0.197540715755073
10,2.170,0.193041695866555
11,2.178,0.198597985428874
12,2.185,0.179942049624489
13,2.193,0.173639672597325
14,2.200,0.168964441096507
15,2.208,0.157870607888072
16,2.215,0.16202845210171
17,2.223,0.162485852457042
18,2.230,0.15855670842107
19,2.238,0.150972110725678
20,2.246,0.157563174862356
21,2.253,0.142708910863768
22,2.261,0.149978577166964
23,2.268,0.140294436856931
24,2.276,0.140174462993237
25,2.283,0.138191145059049
26,2.291,0.12672239352657
27,2.298,0.145100889771163
28,2.306,0.130835247541323
29,2.313,0.125830087915348
30,2.321,0.141527918143033
31,2.328,0.1335871480398
32,2.336,0.129361818527834
33,2.343,0.132278683088889
34,2.351,0.123618069803493
35,2.359,0.113581506268859
36,2.366,0.113701480132553
37,2.374,0.108658828674173
38,2.381,0.116659585709253
39,2.389,0.10315127849398
40,2.396,0.116843295688034
41,2.404,0.107710285314344
42,2.411,0.13558921189019
43,2.419,0.197758168383018
44,2.426,0.349573845337793
45,2.434,0.240000215952955
46,2.441,0.113832701545968
47,2.449,0.0994245903529916
48,2.457,0.0950305475952064
49,2.464,0.113011630416314
50,2.472,0.100425622278187
51,2.479,0.103432467237012
52,2.487,0.094835590066704
53,2.494,0.10445224507841
54,2.502,0.0998594956088816
55,2.509,0.108838789469714
56,2.517,0.090400306293274
57,2.524,0.0960615729863249
58,2.532,0.0930659755772205
59,2.539,0.103252506441472
60,2.547,0.0895679876138983
61,2.554,0.0920724420185063
62,2.562,0.093227190456559
63,2.570,0.0878096206741361
64,2.577,0.0901491110161651
65,2.585,0.0764383479059087
66,2.592,0.08436412127618
67,2.600,0.0947568572186549
68,2.607,0.0941194960677816
69,2.615,0.0827857151319585
70,2.622,0.0804124821407656
71,2.630,0.0810610908413602
72,2.637,0.0924736046252324
73,2.645,0.0827744675822372
74,2.652,0.0861787259645486
75,2.660,0.0745150169035676
76,2.668,0.0911688888575624
77,2.675,0.0834568189319957
78,2.683,0.0752386092689708
79,2.690,0.0821558523475661
80,2.698,0.0801387917642142
81,2.705,0.0834043303666296
82,2.713,0.0650708243209217
83,2.720,0.0863886802260128
84,2.728,0.082841952880565
85,2.735,0.0760521820321443
86,2.743,0.0830444087755483
87,2.750,0.0984610502602008
88,2.758,0.0887581640339652
89,2.765,0.0891105872585657
90,2.773,0.0863511883936085
91,2.781,0.086703611618209
92,2.788,0.0901266159167226
93,2.796,0.0989896850971016
94,2.803,0.0837567535912302
95,2.811,0.0781029852646601
96,2.818,0.10054559614188
97,2.826,0.0910151723447047
98,2.833,0.0689624765244891
99,2.841,0.0697273099055371
100,2.848,0.0686512943155334
101,2.856,0.0801275442144929
102,2.863,0.0921211814006319
103,2.871,0.0615840839073208
104,2.879,0.0751748731538834
105,2.886,0.0684038482216649
106,2.894,0.0783241870758455
107,2.901,0.0788828153786698
108,2.909,0.0818634160548125
109,2.916,0.0773156567841696
110,2.924,0.0839067209208474
111,2.931,0.077998008133928
112,2.939,0.0903965571100336
113,2.946,0.066630484548941
114,2.954,0.0725541940688221
115,2.961,0.144141098861613
116,2.969,2.39777889386797
117,2.976,19.1789881074408
118,2.984,57.8513070927498
119,2.992,100
120,2.999,22.7941417962097
121,3.007,0.201158677582089
122,3.014,0.122662028077183
123,3.022,0.115887253961724
124,3.029,0.102907581583352
125,3.037,0.0915400579983651
126,3.044,0.0996907823630622
127,3.052,0.116730820190821
128,3.059,0.0967626702522855
129,3.067,0.0901866028485694
130,3.074,0.0866886148852472
131,3.082,0.0835093074973617
132,3.089,0.0836892682929024
133,3.097,0.0677589887043108
134,3.105,0.092357379944779
135,3.112,0.0649508504572279
136,3.120,0.0666717255645858
137,3.127,0.071744370488889
138,3.135,0.0905802670888147
139,3.142,0.105753211662839
140,3.150,0.0666192369992197
141,3.157,0.0633611967632851
142,3.165,0.0737914245381644
143,3.172,0.097253813256782
144,3.180,0.0689737240742104
145,3.187,0.0682051415099221
146,3.195,0.0690149650898552
147,3.203,0.0576099496724639
148,3.210,0.0475059008395021
149,3.218,0.0573924970445189
150,3.225,0.0695211048273134
151,3.233,0.0635749002079897
152,3.240,0.0546593424622446
153,3.248,0.0512850775458566
154,3.255,0.0706908499983279
155,3.263,0.0714294390966928
156,3.270,0.0758384785874397
157,3.278,0.0639835611811967
158,3.285,0.0574487347931253
159,3.293,0.0581835747082498
160,3.300,0.0538870107147158
161,3.308,0.061029204787737
162,3.316,0.0532908905794873
163,3.323,0.0734352521303234
164,3.331,0.0632937114649574
165,3.338,0.052488565366035
166,3.346,0.0543219159706058
167,3.353,0.0442178671376441
168,3.361,0.0501153323748421
169,3.368,0.0468010543903011
170,3.376,0.0508876641223709
171,3.383,0.0536395646208474
172,3.391,0.0405661626614642
173,3.398,0.0389352679518767
174,3.406,0.0369631975674099
175,3.414,0.0441578802057972
176,3.421,0.0453051302773691
177,3.429,0.0424220083654776
178,3.436,0.0389765089675214
179,3.444,0.0392764436267559
180,3.451,0.0461486965064661
181,3.459,0.0443678344672613
182,3.466,0.0496991730351543
183,3.474,0.0450201923510963
184,3.481,0.0485819164295058
185,3.489,0.0581498320590859
186,3.496,0.0967739178020068
187,3.504,0.0643209876728355
188,3.511,0.0363145888668154
189,3.519,0.050940152687737
190,3.527,0.0518662009481235
191,3.534,0.0463511524014493
192,3.542,0.0380092196914902
193,3.549,0.0346611990577853
194,3.557,0.035519762019844
195,3.564,0.0439891669599778
196,3.572,0.0296710361647715
197,3.579,0.0435917535364921
198,3.587,0.0413047517598291
199,3.594,0.0450839284661836
200,3.602,0.0364570578299517
201,3.609,0.037964229492605
202,3.617,0.0309982470318841
203,3.625,0.028553779559123
204,3.632,0.0311407159950205
205,3.640,0.0473559335098849
206,3.647,0.0342075478856931
207,3.655,0.0347174368063917
208,3.662,0.0250332964963583
209,3.670,0.0354860193706801
210,3.677,0.0340050919907098
211,3.685,0.0337726426298031
212,3.692,0.0352123289941286
213,3.700,0.0345562219270532
214,3.707,0.0385228577954293
215,3.715,0.019525746316165
216,3.722,0.0309532568329989
217,3.730,0.0355085144701227
218,3.738,0.0322654709671498
219,3.745,0.0312644390419547
220,3.753,0.0352498208265329
221,3.760,0.026979122598142
222,3.768,0.0413422435922334
223,3.775,0.0231099654940171
224,3.783,0.036659513724935
225,3.790,0.0362658494846898
226,3.798,0.0224463600604608
227,3.805,0.0274740147858789
228,3.813,0.0290524209301004
229,3.820,0.0343125250164252
230,3.828,0.0316618524654404
231,3.836,0.0446077821946489
232,3.843,0.0369332041014865
233,3.851,0.0403937002324044
234,3.858,0.0415896896861019
235,3.866,0.0340425838231141
236,3.873,0.0255994231656634
237,3.881,0.038102949272501
238,3.888,0.0279951512562988
239,3.896,0.0318230673447789
240,3.903,0.0397038505161651
241,3.911,0.0325316629772204
242,3.918,0.0298472477770718
243,3.926,0.0330340535314382
244,3.933,0.0276727214976217
245,3.941,0.0303833809804534
246,3.949,0.033423968588443
247,3.956,0.0380654574400967
248,3.964,0.0464861229981049
249,3.971,0.0609242276570049
250,3.979,0.0698697788686735
251,3.986,0.0321155036375326
252,3.994,0.0306870648229283
253,4.001,0.0254944460349313
254,4.009,0.017542428381977
255,4.016,0.0306683189067262
256,4.024,0.0317255885805277
257,4.031,0.0287862289200298
258,4.039,0.0339788477080268
259,4.046,0.030623328707841
260,4.054,0.0326366401079525
261,4.062,0.0298809904262356
262,4.069,0.0439854177767373
263,4.077,0.0363220872332962
264,4.084,0.0273015523568191
265,4.092,0.0346349547751022
266,4.099,0.0442028704046823
267,4.107,0.0486194082619101
268,4.114,0.0393476781083241
269,4.122,0.0298434985938313
270,4.129,0.0318530608107024
271,4.137,0.0281938579680417
272,4.144,0.0327116237727611
273,4.152,0.0296672869815311
274,4.160,0.033641421216388
275,4.167,0.0279726561568562
276,4.175,0.0274702656026385
277,4.182,0.0335139489862134
278,4.190,0.0245309059421405
279,4.197,0.0300347069390933
280,4.205,0.0264504877612412
281,4.212,0.0274027803043107
282,4.220,0.0277889461780751
283,4.227,0.0299634724575251
284,4.235,0.0257606380450019
285,4.242,0.0250820358784839
286,4.250,0.0341475609538462
287,4.257,0.0294235900709031
288,4.265,0.0199531532055742
289,4.273,0.0266341977400223
290,4.280,0.0272115719590487
291,4.288,0.0227687898191379
292,4.295,0.0172012527070978
293,4.303,0.0228512718504274
294,4.310,0.0335551900018581
295,4.318,0.0257868823276849
296,4.325,0.0356022440511335
297,4.333,0.0295323163848756
298,4.340,0.0246021404237087
299,4.348,0.0157465696098105
300,4.355,0.0355422571192866
301,4.363,0.0206542504715348
302,4.371,0.0163201946455965
303,4.378,0.0385790955440357
304,4.386,0.0234511411688964
305,4.393,0.0214940675173913
306,4.401,0.0258356217098105
307,4.408,0.0375818128020811
308,4.416,0.0601219024435527
309,4.423,0.129084378968042
310,4.431,0.0761946509952807
311,4.438,0.0333677308398365
312,4.446,0.0376642948333706
313,4.453,0.0325204154274991
314,4.461,0.0189933622960238
315,4.468,0.0361796182701598
316,4.476,0.0283663203971015
317,4.484,0.0281301218529543
318,4.491,0.0282913367322929
319,4.499,0.0291986390764772
320,4.506,0.0138194894242289
321,4.514,0.0247895995857302
322,4.521,0.0236535970638796
323,4.529,0.0230049883632851
324,4.536,0.0251420228103308
325,4.544,0.020995426146414
326,4.551,0.0283250793814568
327,4.559,0.0266904354886288
328,4.566,0.0239460333566333
329,4.574,0.0229450014314382
330,4.582,0.0233199197554813
331,4.589,0.0355909965014122
332,4.597,0.0246171371566704
333,4.604,0.0231811999755853
334,4.612,0.0249358177321071
335,4.619,0.0187421670189149
336,4.627,0.0209279408480862
337,4.634,0.022221409066035
338,4.642,0.0336714146823115
339,4.649,0.0367120022903011
340,4.657,0.0171562625082126
341,4.664,0.0266791879389075
342,4.672,0.0237810692940543
343,4.679,0.0296485410653289
344,4.687,0.0244409255443702
345,4.695,0.0262255367668154
346,4.702,0.0158777910232256
347,4.710,0.0357222179148273
348,4.717,0.0136732712778521
349,4.725,0.0223601288459309
350,4.732,0.0313581686229655
351,4.740,0.0153154135371609
352,4.747,0.0152666741550353
353,4.755,0.0355535046690079
354,4.762,0.0252957393231884
355,4.770,0.0225400896414716
356,4.777,0.0301584299860275
357,4.785,0.0314443998374954
358,4.792,0.0312681882251951
359,4.800,0.0164176734098477
360,4.808,0.0115774778464512
361,4.815,0.0124585359079525
362,4.823,0.0336301736666667
363,4.830,0.0155741071807507
364,4.838,0.029806006761427
365,4.845,0.0313956604553698
366,4.853,0.0361758690869194
367,4.860,0.0290974111289856
368,4.868,0.0323779464643627
369,4.875,0.0233049230225195
370,4.883,0.0214790707844296
371,4.890,0.0181347993339651
372,4.898,0.0109026248631736
373,4.906,0.0335027014364921
374,4.913,0.0350623616645114
375,4.921,0.0239647792728354
376,4.928,0.0171825067908956
377,4.936,0.0201181172681531
378,4.943,0.0198369285251208
379,4.951,0.0128671968811594
380,4.958,0.014715544218692
381,4.966,0.0210891557274248
382,4.973,0.0256331658148272
383,4.981,0.014141919182906
384,4.988,0.0307133091056113
385,4.996,0.023196196708547
386,5.003,0.0258093774271275
387,5.011,0.018820899866964
388,5.019,0.0293748506887774
389,5.026,0.0236573462471201
390,5.034,0.0203468174458194
391,5.041,0.019881918724006
392,5.049,0.0184759750088443
393,5.056,0.0174674447171684
394,5.064,0.0214603248682275
395,5.071,0.0253407295220736
396,5.079,0.0252694950405054
397,5.086,0.0152704233382758
398,5.094,0.0203768109117429
399,5.101,0.0256294166315868
400,5.109,0.0172949822881085
401,5.117,0.0194770069340394
402,5.124,0.0228850144995913
403,5.132,0.0155928530969528
404,5.139,0.0163801815774434
405,5.147,0.010115296382683
406,5.154,0.0114687515324787
407,5.162,0.0144793456745448
408,5.169,0.0277664510786325
409,5.177,0.00911801364072837
410,5.184,0.0143443750778893
411,5.192,0.0206654980212561
412,5.199,0.0151429511081011
413,5.207,0.0165863866556671
414,5.214,0.0128746952476403
415,5.222,0.0200356352368636
416,5.230,0.00982660927316984
417,5.237,0.0230162359130064
418,5.245,0.0306420746240432
419,5.252,0.0287299911714233
420,5.260,0.0223938714950948
421,5.267,0.0175574251149387
422,5.275,0.0218577382917132
423,5.282,0.0123235653112969
424,5.290,0.0190346033116686
425,5.297,0.0135945384298031
426,5.305,0.0212428722402825
427,5.312,0.0190421016781494
428,5.320,0.0181535452501673
429,5.328,0.0143556226276106
430,5.335,0.0138044926912672
431,5.343,0.0233161705722408
432,5.350,0.0237998152102564
433,5.358,0.0234811346348198
434,5.365,0.0139132190052397
435,5.373,0.0122898226621331
436,5.380,0.0248420881510963
437,5.388,0.0164364193260498
438,5.395,0.0128034607660721
439,5.403,0.0120348782017837
440,5.410,0
441,5.418,0.0173024806545894
442,5.425,0.0176586530624303
443,5.433,0.0234099001532516
444,5.441,0.0224876010761056
445,5.448,0.0155553612645485
446,5.456,0.0323704480978819
447,5.463,0.0140669355180974
448,5.471,0.0140819322510591
449,5.478,0.0219514678727239
450,5.486,0.0251232768941286
451,5.493,0.0170700312936827
452,5.501,0.025430709919844
453,5.508,0.0230237342794872
454,5.516,0.0138682288063545
455,5.523,0.012019881468822
456,5.531,0.0220114548045708
457,5.538,0.0187496653853958
458,5.546,0.0210816573609439
459,5.554,0.00538382713325902
460,5.561,0.0131146429750279
461,5.569,0.0187609129351171
462,5.576,0.00402662280022297
463,5.584,0.0196682152793014
464,5.591,0.0210779081777035
465,5.599,0.0335064506197325
466,5.606,0.0214903183341509
467,5.614,0.0269641258651803
468,5.621,0.0238260594929395
469,5.629,0.0351335961460796
470,5.636,0.0225963273900781
471,5.644,0.0344999841784467
472,5.652,0.0185622062233742
473,5.659,0.0297947592117057
474,5.667,0.0277889461780751
475,5.674,0.0165676407394649
476,5.682,0.0245346551253809
477,5.689,0.0246733749052769
478,5.697,0.0237398282784095
479,5.704,0.0270166144305463
480,5.712,0.024665876538796
481,5.719,0.0264429893947604
482,5.727,0.0294948245524712
483,5.734,0.0376268030009662
484,5.742,0.0389502646848384
485,5.749,0.0090617758921219
486,5.757,0.0246058896069491
487,5.765,0.0352460716432925
488,5.772,0.0162564585305091
489,5.780,0.0228287767509848
490,5.787,0.0265779599914159
491,5.795,0.0267241781377927
492,5.802,0.0150267264276477
493,5.810,0.0180860599518395
494,5.817,0.0298922379759569
495,5.825,0.0211678885754738
496,5.832,0.0110413446430695
497,5.840,0.0256294166315868
498,5.847,0.0156565892120402
499,5.855,0.0206505012882943
500,5.863,0.0149367460298774
501,5.870,0.0154166414846526
502,5.878,0.0227650406358975
503,5.885,0.0119973863693794
504,5.893,0.0228812653163508
505,5.900,0.0288762093178001
506,5.908,0.0200131401374211
507,5.915,0.0112063087056485
508,5.923,0.00814697518145672
509,5.930,0.0229674965308807
510,5.938,0.0312794357749164
511,5.945,0.0215278101665552
512,5.953,0.0183822454278335
513,5.960,0.0159527746880342
514,5.968,0.030379631797213
515,5.976,0.0111613185067633
516,5.983,0.0148392672656262
517,5.991,0.0233724083208473
518,5.998,0.0237323299119287
519,6.006,0.0215128134335935
520,6.013,0.00900553814351544
521,6.021,0.024804596318692
522,6.028,0.031328175157042
523,6.036,0.0431418515476404
524,6.043,0.0289661897155705
525,6.051,0.0245758961410257
526,6.058,0.0340163395404311
527,6.066,0.0205717684402453
528,6.074,0.0222176598827945
529,6.081,0.0258356217098105
530,6.089,0.0330303043481977
531,6.096,0.0306383254408027
532,6.104,0.0333902259392791
533,6.111,0.0232786787398365
534,6.119,0.0278526822931624
535,6.126,0.03078829277042
536,6.134,0.0428831579040506
537,6.141,0.0563389765539577
538,6.149,0.04566130268521
539,6.156,0.0309570060162394
540,6.164,0.0337538967136009
541,6.171,0.0311482143615013
542,6.179,0.0335776851013007
543,6.187,0.0166013833886288
544,6.194,0.0329290764007061
545,6.202,0.0242797106650316
546,6.209,0.0116749566107024
547,6.217,0.0279089200417689
548,6.224,0.0289062027837236
549,6.232,0.0206729963877369
550,6.239,0.0166763670534374
551,6.247,0.0238860464247864
552,6.254,0.0290899127625047
553,6.262,0.0262442826830175
554,6.269,0.0131708807236344
555,6.277,0.0269041389333334
556,6.285,0.0187834080345597
557,6.292,0.0150904625427351
558,6.300,0.0185097176580082
559,6.307,0.0110038528106652
560,6.315,0.00871310185076181
561,6.322,0.0195744856982906
562,6.330,0.0171562625082126
563,6.337,0.0188508933328874
564,6.345,0.0181647927998885
565,6.352,0.034215046252174
566,6.360,0.0192670526725753
567,6.367,0.00957541399606096
568,6.375,0.0115812270296916
569,6.382,0.0164926570746563
570,6.390,0.0163501881115199
571,6.398,0.0259818398561873
572,6.405,0.0154391365840952
573,6.413,0.0123273144945374
574,6.420,0.0206430029218135
575,6.428,0.0129646756454106
576,6.435,0.0174524479842066
577,6.443,0.0146818015695281
578,6.450,0.0164326701428094
579,6.458,0.0123610571437012
580,6.465,0.0155628596310294
581,6.473,0.0145805736220364
582,6.480,0.0191358312591602
583,6.488,0.00972163214243777
584,6.495,0.0204143027441472
585,6.503,0.0260680710707172
586,6.511,0.0274440213199555
587,6.518,0.0220189531710517
588,6.526,0.0242872090315125
589,6.533,0.0164364193260498
590,6.541,0.00627238356124118
591,6.548,0.0219552170559644
592,6.556,0.0198481760748421
593,6.563,0.0251420228103308
594,6.571,0.0308520288855073
595,6.578,0.0245683977745448
596,6.586,0.0341700560532888
597,6.593,0.0254494558360461
598,6.601,0.0370831714311037
599,6.609,0.0283588220306206
600,6.616,0.0325616564431439
601,6.624,0.0402062410703828
602,6.631,0.0333902259392791
603,6.639,0.0401724984212189
604,6.646,0.0299522249078038
605,6.654,0.0226750602381271
606,6.661,0.0263380122640283
607,6.669,0.0289174503334449
608,6.676,0.0341138183046823
609,6.684,0.022300141914084
610,6.691,0.0145693260723151
611,6.699,0.0200506319698254
612,6.706,0.0229375030649573
613,6.714,0.0301509316195467
614,6.722,0.0300647004050168
615,6.729,0.0237248315454478
616,6.737,0.026926634032776
617,6.744,0.0230799720280937
618,6.752,0.0174861906333705
619,6.759,0.0291761439770346
620,6.767,0.0263867516461539
621,6.774,0.0241334925186548
622,6.782,0.0204555437597919
623,6.789,0.00933171708543294
624,6.797,0.0213553477374954
625,6.804,0.0264954779601264
626,6.812,0.0173999594188406
627,6.820,0.0334389653214047
628,6.827,0.0297572673793014
629,6.835,0.0167738458176886
630,6.842,0.0330865420968042
631,6.850,0.0214153346693423
632,6.857,0.0301659283525084
633,6.865,0.025753139678521
634,6.872,0.0342337921683761
635,6.880,0.0244409255443702
636,6.887,0.0280888808373096
637,6.895,0.0266154518238202
638,6.902,0.0175274316490153
639,6.910,0.0278189396439986
640,6.917,0.0303346415983278
641,6.925,0.0347249351728726
642,6.933,0.0318268165280194
643,6.940,0.0337239032476775
644,6.948,0.0334877047035303
645,6.955,0.0325729039928652
646,6.963,0.0289399454328874
647,6.970,0.0351748371617243
648,6.978,0.0326666335738759
649,6.985,0.0289324470664066
650,6.993,0.0186446882546637
651,7.000,0.0267916634361204
652,7.008,0.0216440348470086
653,7.015,0.0318455624442215
654,7.023,0.0496654303859904
655,7.031,0.100643074906132
656,7.038,0.106188116918729
657,7.046,0.0760821754980678
658,7.053,0.0542956716879228
659,7.061,0.0379417343931625
660,7.068,0.0360821395059086
661,7.076,0.0355272603863248
662,7.083,0.0406036544938685
663,7.091,0.0374393438389447
664,7.098,0.047513399205983
665,7.106,0.0380054705082498
666,7.113,0.0351523420622817
667,7.121,0.0361083837885917
668,7.128,0.0306570713570049
669,7.136,0.0296185475994055
670,7.144,0.033562688368339
671,7.151,0.0295060721021925
672,7.159,0.0427256922079525
673,7.166,0.0756210259594947
674,7.174,0.0686325483993312
675,7.181,0.0554241758432925
676,7.189,0.0508801657558901
677,7.196,0.0497816550664438
678,7.204,0.0440341571588629
679,7.211,0.0460812112081383
680,7.219,0.0555404005237459
681,7.226,0.0883420046942774
682,7.234,0.133812099034225
683,7.241,0.152396800357042
684,7.249,0.108467620328911
685,7.257,0.07992883750275
686,7.264,0.0868498297645858
687,7.272,0.0674628032283167
688,7.279,0.0571712952333334
689,7.287,0.055941563130472
690,7.294,0.0541007141594204
691,7.302,0.0552779576969157
692,7.309,0.0439029357454479
693,7.317,0.0372631322266444
694,7.324,0.0514987809905612
695,7.332,0.0419946014760684
696,7.339,0.0371656534623932
