#"+EI TIC Scan IPA-Blank2.d "
#Point,X(Minutes),Y(Counts)
0,2.095,0.265442567830283
1,2.102,0.247399546008317
2,2.110,0.254759321456476
3,2.117,0.225764583464482
4,2.125,0.225824757729153
5,2.132,0.211336646312336
6,2.140,0.212535502816156
7,2.147,0.198750967417024
8,2.155,0.184961803228303
9,2.162,0.18214287036797
10,2.170,0.200000740606334
11,2.178,0.173537950520091
12,2.185,0.194705405315332
13,2.193,0.154296072194305
14,2.200,0.161678991590415
15,2.208,0.139914422938059
16,2.215,0.150551381415965
17,2.223,0.1536017537558
18,2.230,0.145015349066281
19,2.238,0.136586323222823
20,2.245,0.12390343974612
21,2.253,0.140918870279097
22,2.260,0.136146588211769
23,2.268,0.124204311069473
24,2.275,0.115904891334536
25,2.283,0.106212205932997
26,2.291,0.122454628604438
27,2.298,0.116011353495106
28,2.306,0.114854156097597
29,2.313,0.108406252198675
30,2.321,0.101157567700677
31,2.328,0.111401079063429
32,2.336,0.116076156549367
33,2.343,0.103995015719369
34,2.351,0.108947820580709
35,2.358,0.0885857751741351
36,2.366,0.108197956667123
37,2.373,0.0966444978503901
38,2.381,0.0853687664090591
39,2.388,0.0979544453043707
40,2.396,0.092423041744276
41,2.404,0.108225729404664
42,2.411,0.142784272483883
43,2.419,0.291706319964155
44,2.426,0.329819773448522
45,2.434,0.137419505349029
46,2.441,0.100055915778248
47,2.449,0.0951910579191184
48,2.456,0.0920249658395328
49,2.464,0.0843874630159712
50,2.471,0.0927563145947587
51,2.479,0.0967833615380912
52,2.486,0.0892060329792001
53,2.494,0.0819249469540713
54,2.502,0.0812352573051557
55,2.509,0.0903308288495791
56,2.517,0.087581327833097
57,2.524,0.0893078663501809
58,2.532,0.0754214975800688
59,2.539,0.0733709437916823
60,2.547,0.0871971382971239
61,2.554,0.0772730134160838
62,2.562,0.0917102081474103
63,2.569,0.0965704372169495
64,2.577,0.0654510848031283
65,2.584,0.0948346411206855
66,2.592,0.088331191746683
67,2.599,0.0747780958270536
68,2.607,0.0747179215623831
69,2.615,0.073593125692004
70,2.622,0.0754585278967891
71,2.630,0.072847890568008
72,2.637,0.0822859925420942
73,2.645,0.0710426626278935
74,2.652,0.0743198456576399
75,2.660,0.0617063940247881
76,2.667,0.0768703087217505
77,2.675,0.0699456394950546
78,2.682,0.0618082273957689
79,2.690,0.0755325885302297
80,2.697,0.0749447322522949
81,2.705,0.0700382152868553
82,2.713,0.0761759902832449
83,2.720,0.083494106625094
84,2.728,0.0857344407866721
85,2.735,0.0747919821958237
86,2.743,0.0738245651715059
87,2.750,0.078670907872275
88,2.758,0.0629607960036882
89,2.765,0.0783330062322023
90,2.773,0.072102655444012
91,2.780,0.0888727601287174
92,2.788,0.0906409577521117
93,2.795,0.0739958303863373
94,2.803,0.0700197001284952
95,2.810,0.0635764250191632
96,2.818,0.0869518124488519
97,2.826,0.0861741757977256
98,2.833,0.0779951045921296
99,2.841,0.0677423356501968
100,2.848,0.061326833278405
101,2.856,0.0706307003543801
102,2.863,0.0767268162444593
103,2.871,0.0684505404574725
104,2.878,0.0782080289132713
105,2.886,0.0691124573688479
106,2.893,0.0704455487707786
107,2.901,0.0854567134112698
108,2.908,0.0832117504601017
109,2.916,0.0817536817392399
110,2.924,0.0743383608160001
111,2.931,0.0653862817488678
112,2.939,0.0763935433939767
113,2.946,0.0669091535239901
114,2.954,0.0705427533521694
115,2.961,0.365188354705998
116,2.969,6.17940632996234
117,2.976,33.6761846924077
118,2.984,82.3858447911305
119,2.991,100
120,2.999,2.7940531162863
121,3.006,0.135285633348022
122,3.014,0.10903576758292
123,3.021,0.10526793285663
124,3.029,0.0768841950905206
125,3.037,0.0721165418127821
126,3.044,0.0892569496646905
127,3.052,0.0993430821813819
128,3.059,0.0822489622253739
129,3.067,0.0800919462764165
130,3.074,0.0845448418620324
131,3.082,0.0727738299345674
132,3.089,0.0642892586160289
133,3.097,0.0808695829275428
134,3.104,0.075699224955471
135,3.112,0.062192416931742
136,3.119,0.0729034360430885
137,3.127,0.0616230758121674
138,3.134,0.0942097545260305
139,3.142,0.0921499431584638
140,3.150,0.0643910919870098
141,3.157,0.063058000585079
142,3.165,0.0724220419257246
143,3.172,0.07928190809816
144,3.180,0.0591790749086277
145,3.187,0.080277097860018
146,3.195,0.0673581461142237
147,3.202,0.0592346203837081
148,3.210,0.0446909634918107
149,3.217,0.0722785494484334
150,3.225,0.0658676758662317
151,3.232,0.0584940140493022
152,3.240,0.0492734651859477
153,3.248,0.0430153416602172
154,3.255,0.0687282678328748
155,3.263,0.0611416816948035
156,3.270,0.0732228225248011
157,3.278,0.0506435869045988
158,3.285,0.0373774759395517
159,3.293,0.0429644249747268
160,3.300,0.0558000585079004
161,3.308,0.0480884950508982
162,3.315,0.0628173035263971
163,3.323,0.072347981292284
164,3.330,0.0538143077737744
165,3.338,0.0488568741228444
166,3.345,0.0348594144025714
167,3.353,0.0393215675673674
168,3.361,0.0359332935874601
169,3.368,0.0283004195534884
170,3.376,0.0414322956204244
171,3.383,0.0457278123599791
172,3.391,0.0328181181933649
173,3.398,0.0386781658143522
174,3.406,0.0372524986206207
175,3.413,0.0445845013312399
176,3.421,0.0350167932486327
177,3.428,0.0413582349869838
178,3.436,0.0305638976630167
179,3.443,0.0321793452299398
180,3.451,0.0372339834622606
181,3.459,0.028124525549067
182,3.466,0.04459838770001
183,3.474,0.0422654777466312
184,3.481,0.0404417346481564
185,3.489,0.0864935622794382
186,3.496,0.0756807097971109
187,3.504,0.0487041240663731
188,3.511,0.0395622646260493
189,3.519,0.0408860984488
190,3.526,0.0241807968183552
191,3.534,0.0250047213653818
192,3.541,0.0360212405896708
193,3.549,0.0284670559787298
194,3.556,0.0373311880436513
195,3.564,0.0275644420086725
196,3.572,0.0390716129295054
197,3.579,0.033702217005062
198,3.587,0.0259860247584698
199,3.594,0.0257869868060982
200,3.602,0.0303046854459746
201,3.609,0.0324061559198516
202,3.617,0.0276662753796533
203,3.624,0.0270645327329485
204,3.632,0.0301565641790934
205,3.639,0.0354472706805061
206,3.647,0.0488244725957141
207,3.654,0.0325542771867328
208,3.662,0.0228153038892942
209,3.670,0.0348455280338013
210,3.677,0.0321886028091198
211,3.685,0.0271941388414695
212,3.692,0.0248797440464508
213,3.700,0.0209036137886087
214,3.707,0.0336188987924414
215,3.715,0.0151639146969624
216,3.722,0.0358314602164792
217,3.730,0.0295594503219786
218,3.737,0.025518517009876
219,3.745,0.0315220571081544
220,3.752,0.0248843728360409
221,3.760,0.0312443297327522
222,3.767,0.0349473614047821
223,3.775,0.0110813222785494
224,3.783,0.0232087510044473
225,3.790,0.024287258978926
226,3.798,0.0333365426274491
227,3.805,0.0253426230054546
228,3.813,0.0301426778103233
229,3.820,0.0213294624308922
230,3.828,0.0296520261137794
231,3.835,0.0288419879355228
232,3.843,0.0228291902580643
233,3.850,0.0261850627108414
234,3.858,0.016853422897326
235,3.865,0.0212692881662217
236,3.873,0.0264350173487034
237,3.881,0.0276847905380135
238,3.888,0.0286984954582317
239,3.896,0.026143403604531
240,3.903,0.0387522264477928
241,3.911,0.0272728282645001
242,3.918,0.0287679273020822
243,3.926,0.0252407896344737
244,3.933,0.02725431310614
245,3.941,0.0299436398579517
246,3.948,0.0295363063740284
247,3.956,0.0253842821117649
248,3.963,0.0387661128165629
249,3.971,0.0694040711130202
250,3.978,0.0549900203296439
251,3.986,0.0353546948887054
252,3.994,0.0227412432558536
253,4.001,0.0288234727771627
254,4.009,0.0186355068894904
255,4.016,0.0224311143533211
256,4.024,0.0273098585812204
257,4.031,0.024028046761884
258,4.039,0.0302167384437639
259,4.046,0.0298047761702506
260,4.054,0.0255786912745465
261,4.061,0.0260091687064199
262,4.069,0.0132198230691467
263,4.076,0.025277819951194
264,4.084,0.0251574714218531
265,4.091,0.0302583975500742
266,4.099,0.0368914530325978
267,4.107,0.0354518994700962
268,4.114,0.0274811237960518
269,4.122,0.0232781828482979
270,4.129,0.0273654040563009
271,4.137,0.0166312409970042
272,4.144,0.018209658247207
273,4.152,0.0297446019055801
274,4.159,0.0203342726690341
275,4.167,0.0377940670026551
276,4.174,0.026384100663213
277,4.182,0.0261156308669908
278,4.189,0.0298232913286107
279,4.197,0.0329986409873764
280,4.205,0.0194131435406167
281,4.212,0.02106099263467
282,4.220,0.0214775836977734
283,4.227,0.0314155949475836
284,4.235,0.0216164473854745
285,4.242,0.0244816681417076
286,4.250,0.01610818777333
287,4.257,0.0288142151979826
288,4.265,0.0265738810364045
289,4.272,0.0227319856766735
290,4.280,0.019084499479724
291,4.287,0.0219913793422675
292,4.295,0.0173070442771497
293,4.302,0.0273283737395806
294,4.310,0.0275690707982625
295,4.318,0.018084680928276
296,4.325,0.0234263041151791
297,4.333,0.0163118545152917
298,4.340,0.0241345089224548
299,4.348,0.0178949005550844
300,4.355,0.0236531148050909
301,4.363,0.0217691974419457
302,4.370,0.018339264355728
303,4.378,0.0204222196712448
304,4.385,0.0208526971031183
305,4.393,0.0173533321730501
306,4.400,0.0197417876015094
307,4.408,0.0200102573977315
308,4.416,0.0921777158960041
309,4.423,0.125704038896645
310,4.431,0.0559713237227318
311,4.438,0.0218386292857963
312,4.446,0.0283467074493888
313,4.453,0.0156638239726864
314,4.461,0.0323598680239512
315,4.468,0.0180245066636055
316,4.476,0.0144510811000966
317,4.483,0.0180383930323756
318,4.491,0.0177004913923029
319,4.498,0.018459612885069
320,4.506,0.0166312409970042
321,4.513,0.0186725372062107
322,4.521,0.0208573258927084
323,4.529,0.0295964806386989
324,4.536,0.0213479775892523
325,4.544,0.0228939933123248
326,4.551,0.0210933941618003
327,4.559,0.0233892737984588
328,4.566,0.0268192068846765
329,4.574,0.0258980777562591
330,4.581,0.0324154134990317
331,4.589,0.0190196964254635
332,4.596,0.0319525345400279
333,4.604,0.0238197512303323
334,4.611,0.0222691067176698
335,4.619,0.023046743368796
336,4.627,0.021676621650145
337,4.634,0.0237086602801714
338,4.642,0.0197093860743791
339,4.649,0.0204037045128847
340,4.657,0.0326653681368937
341,4.664,0.0154370132827746
342,4.672,0.0214683261185933
343,4.679,0.0223524249302904
344,4.687,0.0268145780950864
345,4.694,0.0236855163322212
346,4.702,0.00831793489329714
347,4.709,0.0150898540635218
348,4.717,0.0277310784339138
349,4.724,0.0278560557528449
350,4.732,0.0326514817681236
351,4.740,0.00728108602512877
352,4.747,0.00978063240374895
353,4.755,0.0117200952419746
354,4.762,0.0281152679698869
355,4.770,0.0180569081907358
356,4.777,0.0183762946724483
357,4.785,0.00571192635410611
358,4.792,0.0194872041740573
359,4.800,0.0274070631626112
360,4.807,0.0130717018022655
361,4.815,0.0192927950112757
362,4.822,0.0274811237960518
363,4.830,0.023046743368796
364,4.837,0.0185892189935901
365,4.845,0.0328968076163955
366,4.853,0.0283791089765191
367,4.860,0.0233152131650182
368,4.868,0.023046743368796
369,4.875,0.0141733537246944
370,4.883,0.0198297346037201
371,4.890,0.0143538765187059
372,4.898,0.020570340938126
373,4.905,0.0278560557528449
374,4.913,0.0257268125414277
375,4.920,0.0157517709748971
376,4.928,0.014497368995997
377,4.935,0.0242224559246655
378,4.943,0.0244446378249873
379,4.951,0.0156499376039163
380,4.958,0.0172329836437091
381,4.966,0.0125023606826909
382,4.973,0.00674877522227448
383,4.981,0.0202139241396932
384,4.988,0.0171357790623183
385,4.996,0.0164368318342227
386,5.003,0.013136504856526
387,5.011,0.00751252550463064
388,5.018,0.0150852252739318
389,5.026,0.0180059915052453
390,5.033,0.0274718662168718
391,5.041,0.0137845353991313
392,5.048,0.0172839003291995
393,5.056,0.018700309943751
394,5.064,0.0241761680287652
395,5.071,0.0165942106802839
396,5.079,0.011400708760262
397,5.086,0.00993801124981022
398,5.094,0.0226023795681524
399,5.101,0.0104888372110247
400,5.109,0.0125856788953116
401,5.116,0.0305685264526067
402,5.124,0.0172376124332991
403,5.131,0.0182189158263871
404,5.139,0.011891360456806
405,5.146,0.0189826661087432
406,5.154,0.0042492288436543
407,5.162,0.0154971875474451
408,5.169,0.0217506822835856
409,5.177,0.0208480683135283
410,5.184,0.0288836470418331
411,5.192,0.00623960836737037
412,5.199,0.0309388296198097
413,5.207,0.0134558913382386
414,5.214,0.0196029239138082
415,5.222,0.00764676040274172
416,5.229,0.0129559820625146
417,5.237,0.0241067361849146
418,5.244,0.0263100400297724
419,5.252,0.0213202048517121
420,5.259,0.013992830930683
421,5.267,0.0215655306999841
422,5.275,0.0161267029316902
423,5.282,0.0108174812719173
424,5.290,0.0108545115886376
425,5.297,0.0211304244785206
426,5.305,0.0197371588119193
427,5.312,0.0193899995926665
428,5.320,0.00949364744916663
429,5.327,0.0176542034964025
430,5.335,0.029860321645331
431,5.342,0.0129143229562042
432,5.350,0.0121737166217983
433,5.357,0.0123496106262197
434,5.365,0.021435924591463
435,5.373,0.0249723198382516
436,5.380,0.0114886557624727
437,5.388,0.0145668008398476
438,5.395,0.0245464711959681
439,5.403,0.0122986939407293
440,5.410,0.0118774740880359
441,5.418,0.0240049028139338
442,5.425,0.0191909616402949
443,5.433,0.014002088509863
444,5.440,0.0259721383896996
445,5.448,0.0295918518491089
446,5.455,0.0164507182029928
447,5.463,0.0150157934300812
448,5.470,0.0257360701206077
449,5.478,0.0292076623131358
450,5.486,0.0262730097130521
451,5.493,0.0247362515691597
452,5.501,0.0269488129931975
453,5.508,0.0235929405404204
454,5.516,0.0188114008939118
455,5.523,0.00929923828638506
456,5.531,0.0166266122074142
457,5.538,0.0225005461971716
458,5.546,0.0156823391310466
459,5.553,0.00939644286777585
460,5.561,0.0187651129980115
461,5.568,0.0149139600591004
462,5.576,0.0214960988561335
463,5.584,0.0180661657699158
464,5.591,0.00754029824217087
465,5.599,0.0201028331895323
466,5.606,0.0253333654262745
467,5.614,0.0200148861873216
468,5.621,0.0443900921684583
469,5.629,0.0448992590233624
470,5.636,0.0430060840810371
471,5.644,0.0331930501501579
472,5.651,0.0316655495854456
473,5.659,0.0290826849942048
474,5.666,0.0294483593718177
475,5.674,0.0227042129391333
476,5.681,0.017098748745598
477,5.689,0.0251806153698033
478,5.697,0.030850882617599
479,5.704,0.0243289180852364
480,5.712,0.0273700328458909
481,5.719,0.0235697965924703
482,5.727,0.0331328758854874
483,5.734,0.0241345089224548
484,5.742,0.0314202237371736
485,5.749,0.0228430766268344
486,5.757,0.0226301523056927
487,5.764,0.00831793489329714
488,5.772,0.0240835922369644
489,5.779,0.0173116730667397
490,5.787,0.032452443815752
491,5.794,0.0154184981244145
492,5.802,0.0128171183748135
493,5.810,0.0300639883872927
494,5.817,0.0203990757232947
495,5.825,0.0200611740832219
496,5.832,0.0167377031575751
497,5.840,0.023167091898137
498,5.847,0.0131503912252962
499,5.855,0.00699410107054646
500,5.862,0.0133309140193076
501,5.870,0.0130855881710356
502,5.877,0.0117524967691049
503,5.885,0.0106369584779059
504,5.892,0.00290687986254346
505,5.900,0.0156869679206366
506,5.908,0.00626275231532055
507,5.915,0.018584590204
508,5.923,0.0151592859073724
509,5.930,0.0184457265162989
510,5.938,0.00679969190776489
511,5.945,0.0110535495410092
512,5.953,0.0103638598920937
513,5.960,0.0118635877192658
514,5.968,0.00756807097971109
515,5.975,0.00884098811697136
516,5.983,0.012136686305078
517,5.990,0.0209869320012294
518,5.998,0.0124190424700702
519,6.005,0.0135808686571696
520,6.013,0.0156406800247363
521,6.021,0.0239725012868035
522,6.028,0.0222274476113594
523,6.036,0.0177051201818929
524,6.043,0.0196445830201186
525,6.051,0.0222043036634092
526,6.058,0.00783654077593326
527,6.066,0.0202000377709231
528,6.073,0.0130994745398057
529,6.081,0.0165710667323338
530,6.088,0
531,6.096,0.0166960440512648
532,6.103,0.0202324392980533
533,6.111,0.0134466337590585
534,6.119,0.00432791826668493
535,6.126,0.0283050483430785
536,6.134,0.0309017993030894
537,6.141,0.0394789464134287
538,6.149,0.025273191161604
539,6.156,0.0237271754385315
540,6.164,0.0218247429170262
541,6.171,0.01609893019415
542,6.179,0.0223940840366008
543,6.186,0.0141363234079741
544,6.194,0.0193807420134864
545,6.201,0.0202231817188732
546,6.209,0.00546660050583413
547,6.216,0.0280967528115268
548,6.224,0.0169228547411766
549,6.232,0.0147658387922192
550,6.239,0.018825287262682
551,6.247,0.0159878392439891
552,6.254,0.0190104388462835
553,6.262,0.00695244196423612
554,6.269,0.0206351439923866
555,6.277,0.00638310084466152
556,6.284,0.00680432069735492
557,6.292,0.0187651129980115
558,6.299,0.0190983858484942
559,6.307,0.0259999111272399
560,6.314,0.0245048120896578
561,6.322,0.0312628448911124
562,6.330,0.0187327114708812
563,6.337,0.00913723065073376
564,6.345,0.0133401715984877
565,6.352,0.00789208625101371
566,6.360,0.013877111190932
567,6.367,0.00958622324096738
568,6.375,0.0141826113038745
569,6.382,0.0174829382815711
570,6.390,0.0198713937100304
571,6.397,0.0135854974467597
572,6.405,0.0158165740291577
573,6.412,0.0118126710337754
574,6.420,0.0191169010068543
575,6.427,0.0241067361849146
576,6.435,0.0214544397498232
577,6.443,0.0160804150357898
578,6.450,0.018825287262682
579,6.458,0.01733944580428
580,6.465,0.0091927761258142
581,6.473,0.0202139241396932
582,6.480,0.00694781317464608
583,6.488,0.0163072257257016
584,6.495,0.00579524456672678
585,6.503,0.00576284303959652
586,6.510,0.0199223103955208
587,6.518,0.0173996200689505
588,6.525,0.0155481042329355
589,6.533,0.0229587963665853
590,6.540,0.0206027424652563
591,6.548,0.0131133609085759
592,6.556,0.0226301523056927
593,6.563,0.00725331328758855
594,6.571,0.0227134705183133
595,6.578,0.0113405344955915
596,6.586,0.0243289180852364
597,6.593,0.0324200422886217
598,6.601,0.0274209495313813
599,6.608,0.0202648408251836
600,6.616,0.0232087510044473
601,6.623,0.0271432221559791
602,6.631,0.0129374669041544
603,6.638,0.0251019259467726
604,6.646,0.0146686342108284
605,6.654,0.0182328021951572
606,6.661,0.0167099304200349
607,6.669,0.0276570178004732
608,6.676,0.0166960440512648
609,6.684,0.0128263759539935
610,6.691,0.00997041277694048
611,6.699,0.020570340938126
612,6.706,0.0108730267469978
613,6.714,0.00678117674940474
614,6.721,0.0176264307588623
615,6.729,0.0148815585319701
616,6.736,0.0120579968820473
617,6.744,0.0199130528163407
618,6.751,0.0176171731796822
619,6.759,0.00825313183903662
620,6.767,0.00450381227110635
621,6.774,0.0234494480631293
622,6.782,0.00928072312802491
623,6.789,0.0218710308129265
624,6.797,0.0269441842036075
625,6.804,0.00533699439731308
626,6.812,0.0187604842084214
627,6.819,0.0131827927524264
628,6.827,0.00851234405607871
629,6.834,0.018464241674659
630,6.842,0.0146778917900085
631,6.849,0.00845216979140823
632,6.857,0.00601279767745854
633,6.865,0.0212600305870416
634,6.872,0.0182929764598277
635,6.880,0.0255555473265963
636,6.887,0.0145482856814874
637,6.895,0.00865583653336987
638,6.902,0.0171126351143681
639,6.910,0.0201722650333828
640,6.917,0.0270876766808987
641,6.925,0.00653585090113276
642,6.932,0.0197140148639691
643,6.940,0.0165571803635636
644,6.947,0.0178671278175442
645,6.955,0.0288466167251129
646,6.962,0.0250417516821021
647,6.970,0.00931775344474521
648,6.978,0.016723816788805
649,6.985,0.0128634062707138
650,6.993,0.0111368677536299
651,7.000,0.0254583427452055
652,7.008,0.0216257049646546
653,7.015,0.0158813770834182
654,7.023,0.0431773492958685
655,7.030,0.0674738658539746
656,7.038,0.0601557495121256
657,7.045,0.0293696699487871
658,7.053,0.027383919214661
659,7.060,0.0347668386107706
660,7.068,0.0262915248714122
661,7.076,0.0259351080729794
662,7.083,0.0204638787775552
663,7.091,0.0230791448959263
664,7.098,0.0232133797940374
665,7.106,0.0247362515691597
666,7.113,0.028619806035201
667,7.121,0.0301935944958137
668,7.128,0.0156545663935064
669,7.136,0.0176079156005021
670,7.143,0.0181217112449963
671,7.151,0.0264211309799333
672,7.158,0.0264489037174735
673,7.166,0.0413628637765739
674,7.173,0.0304481779232658
675,7.181,0.0398261056326815
676,7.189,0.0210887653722102
677,7.196,0.0234077889568189
678,7.204,0.0337531336905525
679,7.211,0.0262220930275617
680,7.219,0.0326237090305833
681,7.226,0.0723664964506441
682,7.234,0.102907250165711
683,7.241,0.0821054697480828
684,7.249,0.062937652055738
685,7.256,0.0429135082892364
686,7.264,0.0347436946628204
687,7.271,0.0380579080092872
688,7.279,0.0279393739654655
689,7.287,0.0346696340293799
690,7.294,0.0373450744124215
691,7.302,0.0319340193816678
692,7.309,0.0269117826764772
693,7.317,0.0240141603931138
694,7.324,0.0308832841447293
