#"+EI TIC Scan IPA-End-Blank2.d "
#Point,X(Minutes),Y(Counts)
0,2.095,0.292734191551351
1,2.102,0.25906068694136
2,2.110,0.257815247721126
3,2.117,0.221492269414158
4,2.125,0.23796751782564
5,2.132,0.201891761536172
6,2.140,0.208739344964274
7,2.148,0.203920847906216
8,2.155,0.18586431149601
9,2.163,0.19128453761553
10,2.170,0.178041833697014
11,2.178,0.164696509318404
12,2.185,0.196149680337267
13,2.193,0.181367669517339
14,2.200,0.156034409573183
15,2.208,0.161104793215108
16,2.215,0.160246513003412
17,2.223,0.145991598183058
18,2.230,0.147712823172819
19,2.238,0.141154442859528
20,2.245,0.149639289082769
21,2.253,0.126288469844978
22,2.261,0.139344591108777
23,2.268,0.135347057731472
24,2.276,0.130048110337519
25,2.283,0.116147702561127
26,2.291,0.12899391833837
27,2.298,0.123247172573096
28,2.306,0.127342661844127
29,2.313,0.108950276655431
30,2.321,0.112159498316558
31,2.328,0.111585756653304
32,2.336,0.100838595741624
33,2.343,0.108003369682744
34,2.351,0.10944472069043
35,2.359,0.102261288483839
36,2.366,0.119468873815084
37,2.374,0.101514957864972
38,2.381,0.100652013086907
39,2.389,0.104999388941806
40,2.396,0.0990753896545515
41,2.404,0.105433193614022
42,2.411,0.145511147847163
43,2.419,0.281805112551322
44,2.426,0.339841647300942
45,2.434,0.143001611141223
46,2.441,0.112332087272171
47,2.449,0.096192687639179
48,2.456,0.0787425448568025
49,2.464,0.0893637624765489
50,2.472,0.0792276597590658
51,2.479,0.0974707788239882
52,2.487,0.0977413236733274
53,2.494,0.105143990499211
54,2.502,0.0810188532443459
55,2.509,0.0817325318986371
56,2.517,0.0926989274296094
57,2.524,0.0971675820100736
58,2.532,0.0944154878530027
59,2.539,0.0976107158150257
60,2.547,0.0894477246711714
61,2.554,0.076918699406947
62,2.562,0.0860425912225922
63,2.570,0.0864250856647613
64,2.577,0.0944061587202669
65,2.585,0.0862524967091484
66,2.592,0.0796288124667067
67,2.600,0.0801978895635925
68,2.607,0.0855807991521684
69,2.615,0.0668432360522469
70,2.622,0.0859819518598093
71,2.630,0.0837056434722659
72,2.637,0.0787845259541137
73,2.645,0.0774457954065216
74,2.652,0.0761956916199199
75,2.660,0.0814386642174584
76,2.667,0.0738820667014332
77,2.675,0.0784859937065671
78,2.683,0.0915234567048943
79,2.690,0.0713025614999753
80,2.698,0.0565065569809434
81,2.705,0.0791297038653396
82,2.713,0.0658683416813523
83,2.720,0.0728698557995953
84,2.728,0.0826001412430696
85,2.735,0.0762936475136462
86,2.743,0.100913228803511
87,2.750,0.0722961141363415
88,2.758,0.067566243839274
89,2.765,0.0715731063493144
90,2.773,0.0852636086391501
91,2.781,0.0803145037227904
92,2.788,0.0903293277147077
93,2.796,0.0735415533565753
94,2.803,0.0754913420983645
95,2.811,0.0718529803313895
96,2.818,0.0854128747629234
97,2.826,0.0828800152251446
98,2.833,0.065602461398381
99,2.841,0.0757152412840245
100,2.848,0.0702250466689865
101,2.856,0.0655231637701264
102,2.863,0.0595198668546176
103,2.871,0.0769840033360979
104,2.878,0.0716663976766728
105,2.886,0.0715777709156824
106,2.894,0.0698285585277136
107,2.901,0.0930580990399389
108,2.909,0.0798107305550554
109,2.916,0.0782574299545391
110,2.924,0.0794795463429333
111,2.931,0.0767087939203908
112,2.939,0.0791017164671321
113,2.946,0.0669551856450769
114,2.954,0.066950521078709
115,2.961,0.43742437571776
116,2.969,6.79466858722413
117,2.976,36.160534783205
118,2.984,85.8410446389672
119,2.991,100
120,2.999,2.39147653116723
121,3.007,0.137236207110478
122,3.014,0.098599603885024
123,3.022,0.103068258465488
124,3.029,0.0955349837813027
125,3.037,0.0832065348708988
126,3.044,0.0929741368453165
127,3.052,0.107084450108265
128,3.059,0.092717585695081
129,3.067,0.0918126598197052
130,3.074,0.0933006564910706
131,3.082,0.0735228950911036
132,3.089,0.0678974280513961
133,3.097,0.0787005637594912
134,3.105,0.0780708472998225
135,3.112,0.0697072798021477
136,3.120,0.0665820203356435
137,3.127,0.0774971056365687
138,3.135,0.0995371817249753
139,3.142,0.0887200523177764
140,3.150,0.0676595351666323
141,3.157,0.0472147407760532
142,3.165,0.0669038754150298
143,3.172,0.0813220500582604
144,3.180,0.0728511975341236
145,3.187,0.0762283435844954
146,3.195,0.0677434973612548
147,3.202,0.0569636844849992
148,3.210,0.064762839452156
149,3.218,0.0648374725140427
150,3.225,0.0678927634850281
151,3.233,0.05210320632963
152,3.240,0.0415566217717702
153,3.248,0.0450223945831324
154,3.255,0.0597111140757022
155,3.263,0.0770959529289279
156,3.270,0.0541649446642492
157,3.278,0.0621693405515943
158,3.285,0.0445139568490294
159,3.293,0.0613950225345201
160,3.300,0.0503260065434537
161,3.308,0.0584190291917892
162,3.316,0.0695067034483273
163,3.323,0.0772778710172766
164,3.331,0.0482502745097308
165,3.338,0.0550652059732571
166,3.346,0.0441594498050678
167,3.353,0.0415566217717702
168,3.361,0.0418178374883736
169,3.368,0.0404931006398852
170,3.376,0.0504286270035479
171,3.383,0.0387998630483314
172,3.391,0.0321995016377292
173,3.398,0.0482129579787874
174,3.406,0.0461978653078474
175,3.413,0.0401432581622915
176,3.421,0.0483435658370891
177,3.429,0.0395368645344623
178,3.436,0.0435483916108707
179,3.444,0.0393036362160664
180,3.451,0.0457873834674707
181,3.459,0.0427834027265323
182,3.466,0.0241251372548654
183,3.474,0.0425268515762969
184,3.481,0.0466736510773749
185,3.489,0.0832298577027384
186,3.496,0.0874139737347597
187,3.504,0.0411554690641294
188,3.511,0.0397560991537544
189,3.519,0.0393502818797456
190,3.527,0.0298858767192425
191,3.534,0.0333703077960764
192,3.542,0.0348209879364985
193,3.549,0.0362809972096564
194,3.557,0.0265367180670783
195,3.564,0.0355626539889972
196,3.572,0.0337061565745664
197,3.579,0.0384033749070585
198,3.587,0.0338600872647076
199,3.594,0.0317703615318809
200,3.602,0.038431362305266
201,3.609,0.0290882358703288
202,3.617,0.0372092459168718
203,3.624,0.0314718292843342
204,3.632,0.0300211491439121
205,3.640,0.0474339753953453
206,3.647,0.0316444182399472
207,3.655,0.0214196887614737
208,3.662,0.0271151242967
209,3.670,0.0404837715071494
210,3.677,0.0404604486753098
211,3.685,0.02879436818915
212,3.692,0.0436323538054932
213,3.700,0.0397560991537544
214,3.707,0.0301517570022138
215,3.715,0.0274929541725013
216,3.722,0.02610757796123
217,3.730,0.0331930542740955
218,3.738,0.0284351965788204
219,3.745,0.0419204579484677
220,3.753,0.0293681098524038
221,3.760,0.0221706839467083
222,3.768,0.0344944682907443
223,3.775,0.0379649056684743
224,3.783,0.0227817421409054
225,3.790,0.0374937844653148
226,3.798,0.02756292266802
227,3.805,0.0434504357171444
228,3.813,0.0296806357990542
229,3.820,0.0299325223829217
230,3.828,0.0374704616334752
231,3.835,0.0184017143214315
232,3.843,0.0431845554341732
233,3.851,0.0237239845472245
234,3.858,0.0470748037850157
235,3.866,0.0178186435254419
236,3.873,0.0280293793048117
237,3.881,0.0331044275131051
238,3.888,0.0171609396675657
239,3.896,0.0216669107789733
240,3.903,0.030310352258723
241,3.911,0.028402544614245
242,3.918,0.0275395998361804
243,3.926,0.0262521795186354
244,3.933,0.0197311157362878
245,3.941,0.0292841476577813
246,3.948,0.0274603022079258
247,3.956,0.0340140179548489
248,3.964,0.0563339680253305
249,3.971,0.0831832120390592
250,3.979,0.0620340681269247
251,3.986,0.0268259211818892
252,3.994,0.0363556302715431
253,4.001,0.0308654356565051
254,4.009,0.0280013919066042
255,4.016,0.0247455245817983
256,4.024,0.0316210954081076
257,4.031,0.0324234008233893
258,4.039,0.0264387621733521
259,4.046,0.0214476761596812
260,4.054,0.0287337288263671
261,4.062,0.0373072018105981
262,4.069,0.0175714215079424
263,4.077,0.0465617014845449
264,4.084,0.0347090383436685
265,4.092,0.0304502892497605
266,4.099,0.0472660510061003
267,4.107,0.0262708377841071
268,4.114,0.0435577207436065
269,4.122,0.0244003466705725
270,4.129,0.0362716680769206
271,4.137,0.0257484063509004
272,4.144,0.0312106135677309
273,4.152,0.0356652744490914
274,4.159,0.0271850927922188
275,4.167,0.0221240382830291
276,4.175,0.0263967810760408
277,4.182,0.0239292254674129
278,4.190,0.0250393922629771
279,4.197,0.0275722518007558
280,4.205,0.0317983489300884
281,4.212,0.0374751261998431
282,4.220,0.0343685249988105
283,4.227,0.0311966198686272
284,4.235,0.0248994552719396
285,4.242,0.0149499352091732
286,4.250,0.0170583192074715
287,4.257,0.021457005292417
288,4.265,0.0244656505997233
289,4.273,0.0198057487981745
290,4.280,0.0357352429446101
291,4.288,0.0337994479019247
292,4.295,0.0231222554857633
293,4.303,0.0244050112369404
294,4.310,0.0178932765873286
295,4.318,0.0260795905630225
296,4.325,0.00731870463126136
297,4.333,0.0216995627435487
298,4.340,0.0292281728613663
299,4.348,0.025044056829345
300,4.355,0.0196051724443541
301,4.363,0.027618897464435
302,4.370,0.0290695776048571
303,4.378,0.0329831487875393
304,4.386,0.0270544849339171
305,4.393,0.0206640290098712
306,4.401,0.0181078466402528
307,4.408,0.0266300093944367
308,4.416,0.110867413432645
309,4.423,0.142012723071225
310,4.431,0.039830732215641
311,4.438,0.0426854468328061
312,4.446,0.02409248529029
313,4.453,0.0312292718332026
314,4.461,0.033221041672303
315,4.468,0.0195491976479391
316,4.476,0.021736879274492
317,4.484,0.0199876668865232
318,4.491,0.0250673796611846
319,4.499,0.0180891883747811
320,4.506,0.0349469312284322
321,4.514,0.0290882358703288
322,4.521,0.0248621387409962
323,4.529,0.0329504968229638
324,4.536,0.0224972035924624
325,4.544,0.0435157396462953
326,4.551,0.02812267063217
327,4.559,0.0201929078067116
328,4.566,0.024820157643685
329,4.574,0.0283885509151413
330,4.581,0.00921718314300348
331,4.589,0.018541651312469
332,4.597,0.026611351128965
333,4.604,0.0274089919778788
334,4.612,0.0198757172936932
335,4.619,0.0158828484827565
336,4.627,0.0213124037350116
337,4.634,0.0319989252839088
338,4.642,0.0359964586612135
339,4.649,0.0224225705305758
340,4.657,0.014623415563419
341,4.664,0.0173568514550182
342,4.672,0.0259956283684
343,4.679,0.013559894431534
344,4.687,0.0259862992356642
345,4.694,0.0237473073790641
346,4.702,0.0175061175787915
347,4.710,0.0273436880487279
348,4.717,0.0182524481976582
349,4.725,0.0195678559134107
350,4.732,0.0364349278997977
351,4.740,0.0164472610132744
352,4.747,0.0176087380388857
353,4.755,0.0134619385378077
354,4.762,0.0173381931895465
355,4.770,0.0240831561575541
356,4.777,0.0174081616850653
357,4.785,0.0279034360128779
358,4.792,0.0252213103513258
359,4.800,0.0365095609616843
360,4.808,0.0136858377234677
361,4.815,0.0235327373261399
362,4.823,0.0154956894742194
363,4.830,0.024036510493875
364,4.838,0.0248668033073641
365,4.845,0.0361877058822981
366,4.853,0.0249041198383075
367,4.860,0.0110177057610193
368,4.868,0.0224785453269908
369,4.875,0.0356559453163556
370,4.883,0.0158595256509169
371,4.890,0.0166804893316703
372,4.898,0.0285611398707542
373,4.905,0.0263827873769371
374,4.913,0.0247455245817983
375,4.921,0.015463037509644
376,4.928,0.0285984564016975
377,4.936,0.0183364103922807
378,4.943,0.0200669645147778
379,4.951,0.0164192736150669
380,4.958,0.0258603559437304
381,4.966,0.0189474685864778
382,4.973,0.0216995627435487
383,4.981,0.0158921776154923
384,4.988,0.0173055412249711
385,4.996,0.0245589419270816
386,5.003,0.0263967810760408
387,5.011,0.0201182747448249
388,5.019,0.0115634600260656
389,5.026,0.0178792828882249
390,5.034,0.0206873518417107
391,5.041,0.0321621851067859
392,5.049,0.021177131310342
393,5.056,0.0196798055062407
394,5.064,0.023700661715385
395,5.071,0.0275302707034446
396,5.079,0.0174501427823765
397,5.086,0.0357492366437139
398,5.094,0.0287850390564142
399,5.101,0.0164099444823311
400,5.109,0.0231735657158104
401,5.116,0.0189008229227986
402,5.124,0.0237379782463283
403,5.132,0.0232342050785933
404,5.139,0.0186722591707707
405,5.147,0.0257110898199571
406,5.154,0.0205147628860978
407,5.162,0.00778049670168512
408,5.169,0.0134572739714398
409,5.177,0.029190856330423
410,5.184,0.0159434878455394
411,5.192,0.0229076854328391
412,5.199,0.0271244534294358
413,5.207,0.0247921702454775
414,5.214,0.0205987250807203
415,5.222,0.0281273351985379
416,5.230,0.0192226780021849
417,5.237,0.0231129263530274
418,5.245,0.0225531783888774
419,5.252,0.0145721053333719
420,5.260,0.0193019756304395
421,5.267,0.0172449018621882
422,5.275,0.0177300167644515
423,5.282,0.0116240993888485
424,5.290,0.0182804355958657
425,5.297,0.00679627319805469
426,5.305,0.0245822647589212
427,5.312,0.0232388696449612
428,5.320,0.0235747184234512
429,5.327,0.0250207339975054
430,5.335,0.022408576831472
431,5.343,0.0255944756607591
432,5.350,0.0122164993175739
433,5.358,0.0162886657567653
434,5.365,0.0207899723018049
435,5.373,0.018378391489592
436,5.380,0.0215876131507187
437,5.388,0.0231175909193954
438,5.395,0.0238779152373658
439,5.403,0.0207433266381257
440,5.410,0.0279407525438213
441,5.418,0.0135085842014869
442,5.425,0.0251933229531183
443,5.433,0.0250533859620808
444,5.440,0.0199690086210516
445,5.448,0.0266486676599083
446,5.456,0.026611351128965
447,5.463,0.0297599334273088
448,5.471,0.0343825186979143
449,5.478,0.0407076706928094
450,5.486,0.0253938993069387
451,5.493,0.0254545386697216
452,5.501,0.0233088381404799
453,5.508,0.0421956673641748
454,5.516,0.0170116735437923
455,5.523,0.0256457858908062
456,5.531,0.0315511269125888
457,5.538,0.0157708988899265
458,5.546,0.0265227243679746
459,5.554,0.0296246610026392
460,5.561,0.0265133952352387
461,5.569,0.0245822647589212
462,5.576,0.0281646517294813
463,5.584,0.0259862992356642
464,5.591,0.0202162306385511
465,5.599,0.0158222091199736
466,5.606,0.0206920164080787
467,5.614,0.0189474685864778
468,5.621,0.0421117051695523
469,5.629,0.0487353894119941
470,5.636,0.0524064031435446
471,5.644,0.0397467700210185
472,5.651,0.016414609048699
473,5.659,0.0376943608191352
474,5.667,0.0101314381511152
475,5.674,0.0345411139544235
476,5.682,0.0228237232382166
477,5.689,0.0199223629573724
478,5.697,0.0175527632424707
479,5.704,0.0319429504874938
480,5.712,0.0264247684742483
481,5.719,0.0320035898502768
482,5.727,0.035124184750413
483,5.734,0.0317936843637205
484,5.742,0.0329271739911243
485,5.749,0.0297412751618371
486,5.757,0.0259023370410417
487,5.765,0.0253006079795804
488,5.772,0.0323860842924459
489,5.780,0.0193392921613828
490,5.787,0.0257624000500042
491,5.795,0.02767487226085
492,5.802,0.010364666469511
493,5.810,0.0166758247653023
494,5.817,0.0106911861152652
495,5.825,0.0256737732890137
496,5.832,0.0130374629983273
497,5.840,0.0198523944618536
498,5.847,0.00470188289886007
499,5.855,0.00850816905508013
500,5.862,0.0177999852599703
501,5.870,0.0253612473423633
502,5.878,0.0163726279513878
503,5.885,0.024260409679535
504,5.893,0.0192879819313357
505,5.900,0.02521198121859
506,5.908,0.0125663417951677
507,5.915,0.00525696629664216
508,5.923,0.0188588418254874
509,5.930,0.0187235694008178
510,5.938,0.0202535471694945
511,5.945,0.0291535397994796
512,5.953,0.0224738807606229
513,5.960,0.0210325297529366
514,5.968,0.0182757710294978
515,5.976,0.0164519255796423
516,5.983,0.0227397610435941
517,5.991,0.0122864678130927
518,5.998,0.0202442180367586
519,6.006,0.0345551076535272
520,6.013,0.0274789604733975
521,6.021,0.0193906023914299
522,6.028,0.023751971945432
523,6.036,0.0302030672322609
524,6.043,0.0222080004776516
525,6.051,0.0268305857482571
526,6.058,0.0253425890768916
527,6.066,0.0163399759868123
528,6.073,0.0231968885476499
529,6.081,0.0251373481567033
530,6.089,0.0164519255796423
531,6.096,0.0276142328980671
532,6.104,0.0151551761293615
533,6.111,0.021065181717512
534,6.119,0.0203235156650132
535,6.126,0.030870100222873
536,6.134,0.0462864920688378
537,6.141,0.0275116124379729
538,6.149,0.0204961046206262
539,6.156,0.0231735657158104
540,6.164,0.0196937992053445
541,6.171,0.0164379318805386
542,6.179,0.0108171294071989
543,6.187,0.0189521331528457
544,6.194,0.0227677484418016
545,6.202,0.0301750798340534
546,6.209,0.00859213124970263
547,6.217,0.0242370868476954
548,6.224,0.0231502428839708
549,6.232,0.029186191764055
550,6.239,0.0367148018818727
551,6.247,0.0170210026765282
552,6.254,0.00935245556767306
553,6.262,0.0123051260785644
554,6.269,0.0224365642296795
555,6.277,0.0235047499279324
556,6.284,0.0280900186675946
557,6.292,0.013447944838704
558,6.300,0.0205334211515695
559,6.307,0.0236913325826491
560,6.315,0.0148333210499752
561,6.322,0.0123517717422435
562,6.330,0.0284631839770279
563,6.337,0.0131773999893648
564,6.345,0.0177906561272344
565,6.352,0.022296627238642
566,6.360,0.0230382932911408
567,6.367,0.0372279041823435
568,6.375,0.0247921702454775
569,6.382,0.00953903822238973
570,6.390,0.0287010768617917
571,6.397,0.0308607710901371
572,6.405,0.0229216791319429
573,6.413,0.0212051187085495
574,6.420,0.0246289104226004
575,6.428,0.00841021316135388
576,6.435,0.0169323759155378
577,6.443,0.0158828484827565
578,6.450,0.0111109970883777
579,6.458,0.0155330060051627
580,6.465,0.0234907562288287
581,6.473,0.0139237306082315
582,6.480,0.00930114533762598
583,6.488,0.0152997776867669
584,6.495,0.029078906737593
585,6.503,0.0281506580303775
586,6.511,0.017702029366244
587,6.518,0.0155050186069552
588,6.526,0.0256644441562779
589,6.533,0.026275502350475
590,6.541,0.0235607247243475
591,6.548,0.0280946832339625
592,6.556,0.0186722591707707
593,6.563,0.0116940678843673
594,6.571,0.0206127187798241
595,6.578,0
596,6.586,0.0256364567580704
597,6.593,0.0194465771878449
598,6.601,0.0178046498263382
599,6.608,0.0181638214366678
600,6.616,0.0227490901763299
601,6.624,0.0305622388425905
602,6.631,0.0286590957644804
603,6.639,0.0252353040504296
604,6.646,0.0194092606569016
605,6.654,0.0203888195941641
606,6.661,0.0202022369394474
607,6.669,0.0223152855041137
608,6.676,0.0182337899321865
609,6.684,0.0134199574404965
610,6.691,0.0204727817887866
611,6.699,0.0200203188510986
612,6.706,0.0216109359825583
613,6.714,0.02431638447595
614,6.722,0.0264340976069842
615,6.729,0.0189008229227986
616,6.737,0.0212937454695399
617,6.744,0.0257530709172683
618,6.752,0.0146420738288906
619,6.759,0.0277541698891046
620,6.767,0.0178046498263382
621,6.774,0.0169417050482736
622,6.782,0.0125803354942714
623,6.789,0.0187282339671857
624,6.797,0.0226791216808112
625,6.804,0.0182337899321865
626,6.812,0.0240971498566579
627,6.819,0.0219187973628408
628,6.827,0.0203515030632207
629,6.835,0.0132986787149306
630,6.842,0.0253379245105237
631,6.850,0.0247268663163266
632,6.857,0.022520526424302
633,6.865,0.0143108896167686
634,6.872,0.0205007691869941
635,6.880,0.0295966736044317
636,6.887,0.0200949519129853
637,6.895,0.02454028366161
638,6.902,0.0313458859924005
639,6.910,0.0316257599744755
640,6.917,0.0295033822770734
641,6.925,0.0203468384968528
642,6.933,0.0258603559437304
643,6.940,0.0234067940342062
644,6.948,0.0188868292236949
645,6.955,0.0209205801601066
646,6.963,0.0288223555873575
647,6.970,0.0237752947772716
648,6.978,0.0279454171101892
649,6.985,0.0189474685864778
650,6.993,0.0220960508848216
651,7.000,0.018373726923224
652,7.008,0.0270871368984925
653,7.015,0.0264527558724558
654,7.023,0.0342425817068768
655,7.030,0.0604107990308897
656,7.038,0.0619501059323022
657,7.046,0.0360477688912606
658,7.053,0.0377456710491823
659,7.061,0.0400079857376219
660,7.068,0.0248994552719396
661,7.076,0.0284165383133488
662,7.083,0.0166478373670948
663,7.091,0.0187189048344499
664,7.098,0.0254965197670329
665,7.106,0.0272410675886338
666,7.113,0.025044056829345
667,7.121,0.0217135564426524
668,7.128,0.0341539549458864
669,7.136,0.0228936917337354
670,7.143,0.0186162843743557
671,7.151,0.0411554690641294
672,7.159,0.0561473853706138
673,7.166,0.0450037363176607
674,7.174,0.0479237548639766
675,7.181,0.0180891883747811
676,7.189,0.0216995627435487
677,7.196,0.0362016995814018
678,7.204,0.019441912621477
679,7.211,0.0230522869902445
680,7.219,0.0429233397175698
681,7.226,0.0745630933911491
682,7.234,0.0903853025111227
683,7.241,0.0813407083237321
684,7.249,0.0637459639839502
685,7.257,0.0391310472604535
686,7.264,0.0509324001712829
687,7.272,0.0360570980239964
688,7.279,0.0354040587324881
689,7.287,0.037703689951871
690,7.294,0.0235327373261399
691,7.302,0.0345504430871593
692,7.309,0.0252586268822691
693,7.317,0.0218068477700108
694,7.324,0.0303616624887701
695,7.332,0.0396768015254998
