#"+EI TIC Scan IPA-PEEK-2Hour.d "
#Point,X(Minutes),Y(Counts)
0,2.095,0.280474363445344
1,2.102,0.245996662664159
2,2.110,0.246359643721992
3,2.117,0.233248327936007
4,2.125,0.224206799768154
5,2.132,0.209385073239953
6,2.140,0.220978468238635
7,2.148,0.194783335231651
8,2.155,0.198171158438097
9,2.163,0.188590658396492
10,2.170,0.188084684800724
11,2.178,0.182958952287075
12,2.185,0.171838532606176
13,2.193,0.165057386480287
14,2.200,0.15999215080961
15,2.208,0.14730431292443
16,2.215,0.151907572703318
17,2.223,0.15467392834105
18,2.230,0.131179154415827
19,2.238,0.151236607717626
20,2.246,0.13884575433431
21,2.253,0.13769081460484
22,2.261,0.133313043058848
23,2.268,0.130282701197238
24,2.276,0.121917637728075
25,2.283,0.119789248798051
26,2.291,0.123985529815127
27,2.298,0.114152042975637
28,2.306,0.113607571388887
29,2.313,0.11218314572254
30,2.321,0.102487151707988
31,2.328,0.120801195989587
32,2.336,0.108415842319269
33,2.343,0.102388156874034
34,2.351,0.12188463945009
35,2.359,0.0986538517487465
36,2.366,0.101799687583303
37,2.374,0.098648352035749
38,2.381,0.107579885943652
39,2.389,0.0857130270656826
40,2.396,0.104362553840128
41,2.404,0.117880848387927
42,2.411,0.158210243798427
43,2.419,0.383384993054137
44,2.426,0.39835521183327
45,2.434,0.156840815262056
46,2.441,0.116076942524754
47,2.449,0.0931926367422516
48,2.457,0.100881235512725
49,2.464,0.0775074552734465
50,2.472,0.0973504197683444
51,2.479,0.0808017833589354
52,2.487,0.0968994433025512
53,2.494,0.0919552013178192
54,2.502,0.0849870649500156
55,2.509,0.0970534352664806
56,2.517,0.100507255028896
57,2.524,0.0893373379310201
58,2.532,0.0999187857381662
59,2.539,0.0939680962748959
60,2.547,0.102806135061842
61,2.554,0.101865684139273
62,2.562,0.085603032805733
63,2.570,0.0831006633918809
64,2.577,0.09478755351152
65,2.585,0.0818467288284561
66,2.592,0.0884683832774187
67,2.600,0.0926591645814963
68,2.607,0.0893703362090049
69,2.615,0.0897003189888536
70,2.622,0.081857728254451
71,2.630,0.0683174348546621
72,2.637,0.0814507494926377
73,2.645,0.0713917744202519
74,2.652,0.0848660712640711
75,2.660,0.0838101263685554
76,2.668,0.0724147210377826
77,2.675,0.0796193450644778
78,2.683,0.0818412291154586
79,2.690,0.083793627229563
80,2.698,0.0770949767986358
81,2.705,0.0710672913534007
82,2.713,0.0728601977905783
83,2.720,0.0686144193565259
84,2.728,0.082226209025282
85,2.735,0.089474830755957
86,2.743,0.0904977773734878
87,2.750,0.0857350259176725
88,2.758,0.0856800287876977
89,2.765,0.0801528172252331
90,2.773,0.0691313923782887
91,2.781,0.0772324696235727
92,2.788,0.107805374176549
93,2.796,0.0857845233346498
94,2.803,0.0700553441618649
95,2.811,0.0735311627762705
96,2.818,0.0866039805712739
97,2.826,0.0670415014392474
98,2.833,0.069917851336928
99,2.841,0.0892823408010453
100,2.848,0.0701268404308321
101,2.856,0.065089103325143
102,2.863,0.0836176364136438
103,2.871,0.0712157836043326
104,2.878,0.0686584170605057
105,2.886,0.0753845660564203
106,2.894,0.0797733370284072
107,2.901,0.0918672059098596
108,2.909,0.0792508642936468
109,2.916,0.0850695606449777
110,2.924,0.0853005485908718
111,2.931,0.0790253760607503
112,2.939,0.0818742273934435
113,2.946,0.0692908840552156
114,2.954,0.0966189579396799
115,2.961,0.860232108787403
116,2.969,10.662612571563
117,2.976,45.6879967718885
118,2.984,98.3450923613551
119,2.992,100
120,2.999,1.76477540519548
121,3.007,0.139170237401161
122,3.014,0.129947218704392
123,3.022,0.119783749085054
124,3.029,0.107717378768589
125,3.037,0.0967729499036093
126,3.044,0.112628622475336
127,3.052,0.13156413432565
128,3.059,0.108184854373375
129,3.067,0.090442780243513
130,3.074,0.0935556178000851
131,3.082,0.0890953505591311
132,3.089,0.072937193772543
133,3.097,0.102228665197107
134,3.105,0.0739931386680586
135,3.112,0.0609478194380426
136,3.120,0.0684879259575839
137,3.127,0.084530588771225
138,3.135,0.108135356956397
139,3.142,0.101893182704261
140,3.150,0.0612888016438862
141,3.157,0.0707318088605546
142,3.165,0.0885618783983758
143,3.172,0.0848935698290585
144,3.180,0.0803123089021599
145,3.187,0.0712872798732998
146,3.195,0.0651276013161253
147,3.203,0.0657600683108352
148,3.210,0.0565205504750735
149,3.218,0.0784149079180303
150,3.225,0.0660020556827242
151,3.233,0.0659745571177368
152,3.240,0.0578624804464579
153,3.248,0.0587809325170366
154,3.255,0.115906451421833
155,3.263,0.31701995631358
156,3.270,0.334305554264651
157,3.278,0.121576655522232
158,3.285,0.0644511366174356
159,3.293,0.0624107430953716
160,3.300,0.0587259353870618
161,3.308,0.0599633708114942
162,3.316,0.084530588771225
163,3.323,0.0886993712233127
164,3.331,0.0543976612580473
165,3.338,0.0504268684738687
166,3.346,0.053000734156688
167,3.353,0.0463680802817305
168,3.361,0.029951436984261
169,3.368,0.0391799553940278
170,3.376,0.0493874227173455
171,3.383,0.042996756214277
172,3.391,0.0476715122621326
173,3.398,0.0389379680221388
174,3.406,0.043700719477954
175,3.414,0.0350606703589173
176,3.421,0.0392019542460177
177,3.429,0.0288019969677882
178,3.436,0.0422487952466201
179,3.444,0.0377390305886887
180,3.451,0.0464835742546775
181,3.459,0.0467695593305463
182,3.466,0.0371835595759435
183,3.474,0.046962049285458
184,3.481,0.0393504464969496
185,3.489,0.101678693897359
186,3.496,0.107887869871511
187,3.504,0.0536936979943702
188,3.511,0.026932094548646
189,3.519,0.0343897053732251
190,3.527,0.0401589043075787
191,3.534,0.051812796149233
192,3.542,0.0404943868004248
193,3.549,0.0400654091866216
194,3.557,0.0329322814288936
195,3.564,0.0403788928274778
196,3.572,0.0307433956558977
197,3.579,0.0397409261197704
198,3.587,0.0472315352223344
199,3.594,0.0279715403051692
200,3.602,0.0424192863495418
201,3.609,0.0411708514991145
202,3.617,0.0362376089403774
203,3.625,0.0292639728595763
204,3.632,0.0322998144341838
205,3.640,0.0404118911054627
206,3.647,0.0358801275955414
207,3.655,0.031150374417711
208,3.662,0.0248367038966072
209,3.670,0.036336603774332
210,3.677,0.0498219000441462
211,3.685,0.0382340047584617
212,3.692,0.0391799553940278
213,3.700,0.0330587748278356
214,3.707,0.0335537489976086
215,3.715,0.0336472441185657
216,3.722,0.0240887429289503
217,3.730,0.03200282993232
218,3.738,0.0381295102115096
219,3.745,0.0428207653983577
220,3.753,0.0355666439546852
221,3.760,0.0363036054963472
222,3.768,0.0411048549431448
223,3.775,0.0407858715892911
224,3.783,0.0350881689239047
225,3.790,0.0359351247255162
226,3.798,0.0289119912277378
227,3.805,0.0289449895057226
228,3.813,0.0335922469885909
229,3.820,0.0320908253402796
230,3.828,0.0295224593704578
231,3.835,0.019683472817971
232,3.843,0.0453396339512023
233,3.851,0.0530062338696855
234,3.858,0.0288844926627504
235,3.866,0.026921095122651
236,3.873,0.0298964398542862
237,3.881,0.0350166726549375
238,3.888,0.0320853256272821
239,3.896,0.0245727176727282
240,3.903,0.0234727750732328
241,3.911,0.0331247713838053
242,3.918,0.019084004101246
243,3.926,0.0341642171403285
244,3.933,0.025480170317312
245,3.941,0.0279660405921717
246,3.949,0.0274875655613912
247,3.956,0.0338287346474824
248,3.964,0.0616847809797046
249,3.971,0.105693484385517
250,3.979,0.0548541374368379
251,3.986,0.0450151508843511
252,3.994,0.0380910122205273
253,4.001,0.0354511499817382
254,4.009,0.0165871344003913
255,4.016,0.027900044036202
256,4.024,0.0241987371888998
257,4.031,0.028626006151869
258,4.039,0.0264096218138856
259,4.046,0.0281530308340859
260,4.054,0.0370515664640041
261,4.062,0.0371780598629461
262,4.069,0.0294839613794754
263,4.077,0.0282300268160506
264,4.084,0.0442066930737219
265,4.092,0.141606610259044
266,4.099,0.182777461758158
267,4.107,0.101271715135546
268,4.114,0.0335482492846111
269,4.122,0.03862998409428
270,4.129,0.0305619051269809
271,4.137,0.0198429644948978
272,4.144,0.0229833006164573
273,4.152,0.0420893035696932
274,4.160,0.0442616902036967
275,4.167,0.0394659404698966
276,4.175,0.0322008196002292
277,4.182,0.045048149162336
278,4.190,0.0312163709736807
279,4.197,0.0421058027086856
280,4.205,0.0302924191901046
281,4.212,0.0441626953697421
282,4.220,0.0244242254217964
283,4.227,0.0354841482597231
284,4.235,0.0332237662177599
285,4.242,0.0245562185337358
286,4.250,0.0343622068082377
287,4.257,0.0340982205843588
288,4.265,0.0218283608869871
289,4.273,0.0239512501040133
290,4.280,0.0234672753602353
291,4.288,0.0373925486698477
292,4.295,0.0215643746631082
293,4.303,0.0288404949587706
294,4.310,0.0281805293990733
295,4.318,0.0290164857746898
296,4.325,0.0248752018875895
297,4.333,0.0268880968446662
298,4.340,0.0363696020523169
299,4.348,0.0250786912684962
300,4.355,0.0237642598620991
301,4.363,0.0220153511289013
302,4.371,0.0287250009858236
303,4.378,0.0268111008627015
304,4.386,0.0303474163200793
305,4.393,0.0307433956558977
306,4.401,0.037926020830603
307,4.408,0.0494864175513001
308,4.416,0.14438396532277
309,4.423,0.134693471021215
310,4.431,0.0555196027095326
311,4.438,0.0320468276362998
312,4.446,0.0316618477264764
313,4.453,0.0229997997554498
314,4.461,0.0282080279640607
315,4.468,0.0472315352223344
316,4.476,0.0320468276362998
317,4.484,0.033328260764712
318,4.491,0.0307653945078876
319,4.499,0.0311943721216908
320,4.506,0.0291594783126243
321,4.514,0.0289504892187201
322,4.521,0.0284225167709623
323,4.529,0.0250841909814936
324,4.536,0.0364685968862715
325,4.544,0.0414513368619859
326,4.551,0.03320176736577
327,4.559,0.0154486938099135
328,4.566,0.0257771548191758
329,4.574,0.0173845927850255
330,4.581,0.0312163709736807
331,4.589,0.0303144180420945
332,4.597,0.0335977467015884
333,4.604,0.0182645468646219
334,4.612,0.0220813476848711
335,4.619,0.0266571088987721
336,4.627,0.0212068933182722
337,4.634,0.0280870342781162
338,4.642,0.0320963250532771
339,4.649,0.0176430792959069
340,4.657,0.0162901498985275
341,4.664,0.0266186109077898
342,4.672,0.0199309599028575
343,4.679,0.0251336883984709
344,4.687,0.0368095790921151
345,4.695,0.0236322667501596
346,4.702,0.0272510779024997
347,4.710,0.0232527865533337
348,4.717,0.010636444937121
349,4.725,0.0183085445686017
350,4.732,0.0244022265698065
351,4.740,0.0260081427650698
352,4.747,0.0147447305462364
353,4.755,0.0238192569920739
354,4.762,0.0236872638801344
355,4.770,0.0316398488744865
356,4.777,0.0174010919240179
357,4.785,0.0143432514974206
358,4.792,0.02474320877565
359,4.800,0.0125063473562632
360,4.808,0.0374530455128199
361,4.815,0.0205689266105648
362,4.823,0.0114834007387324
363,4.830,0.0361166152544329
364,4.838,0.0479684967639964
365,4.845,0.0446576695395151
366,4.853,0.0285710090218942
367,4.860,0.0229833006164573
368,4.868,0.0272840761804845
369,4.875,0.00888203649092572
370,4.883,0.0201344492837641
371,4.890,0.0337847369435026
372,4.898,0.0207449174264841
373,4.906,0.0287689986898034
374,4.913,0.0310513795837564
375,4.921,0.0266296103337847
376,4.928,0.00922301869676931
377,4.936,0.014486244035355
378,4.943,0.0299129389932786
379,4.951,0.0203764366556531
380,4.958,0.0312108712606833
381,4.966,0.0243142311618468
382,4.973,0.0175110861839675
383,4.981,0.0171041074221542
384,4.988,0.0230657963114195
385,4.996,0.0153881969669413
386,5.003,0.0230052994684472
387,5.011,0.0241822380499074
388,5.019,0.0134577977048268
389,5.026,0.0127648338671446
390,5.034,0.0164001441584771
391,5.041,0.0294619625274855
392,5.049,0.0106474443631159
393,5.056,0.0283895184929774
394,5.064,0.00157841763027596
395,5.071,0.0177915715468388
396,5.079,0.0169996128752021
397,5.086,0.0243472294398317
398,5.094,0.0144697448963626
399,5.101,0.01508571275208
400,5.109,0.025595664290259
401,5.117,0.0136832859377233
402,5.124,0.0274435678574114
403,5.132,0.0221638433798332
404,5.139,0.0127868327191346
405,5.147,0.00829906691319313
406,5.154,0.0198429644948978
407,5.162,0.0104879526861891
408,5.169,0.0100204770814035
409,5.177,0.0308368907768548
410,5.184,0.0143432514974206
411,5.192,0.0204974303415976
412,5.199,0.0186990241914226
413,5.207,0.0256891594112161
414,5.214,0.0213938835601864
415,5.222,0.00488924485475725
416,5.230,0.0237807590010915
417,5.237,0.0245947165247182
418,5.245,0.0221253453888509
419,5.252,0.0102844633052824
420,5.260,0.0159711665446739
421,5.267,0.0122588602713767
422,5.275,0.0226423184106137
423,5.282,0.0159931653966638
424,5.290,0.0155751872088555
425,5.297,0.0272015804855224
426,5.305,0.0216358709320754
427,5.312,0.01750558647097
428,5.320,0.00231537917193791
429,5.328,0.0247267096366576
430,5.335,0.0134852962698142
431,5.343,0.0169006180412475
432,5.350,0.0243637285788241
433,5.358,0.011109420254904
434,5.365,0.017632079869912
435,5.373,0.0245617182467333
436,5.380,0.00921201927077435
437,5.388,0.00703413292377337
438,5.395,0.0297479476033543
439,5.403,0.00683614325586419
440,5.410,0.026921095122651
441,5.418,0.0174835876189801
442,5.425,0.0147722291112238
443,5.433,0.014002269291577
444,5.441,0.00987198483047162
445,5.448,0.0118793800745508
446,5.456,0.00490024428075221
447,5.463,0.0263986223878907
448,5.471,0.0294344639624981
449,5.478,0.0131058160729882
450,5.486,0.0202169449787263
451,5.493,0.0253041795013927
452,5.501,0.0139527718745997
453,5.508,0.0162296530555553
454,5.516,0.0125833433382279
455,5.523,0.0111589176718813
456,5.531,0.0194029874550997
457,5.538,0.0161141590826083
458,5.546,0.0184075394025563
459,5.554,0.0208109139824538
460,5.561,0.0339607277594219
461,5.569,0.0261401358770093
462,5.576,0.0196009771230088
463,5.584,0.0290329849136823
464,5.591,0.015338699549964
465,5.599,0.015327700123969
466,5.606,0.0214323815511688
467,5.614,0.0108399343180276
468,5.621,0.0258706499401329
469,5.629,0.0216138720800855
470,5.636,0.0106639435021083
471,5.644,0.0115218987297148
472,5.652,0.0227578123835608
473,5.659,0.016537636983414
474,5.667,0.0107739377620579
475,5.674,0.0211518961882974
476,5.682,0.0227853109485481
477,5.689,0.0122203622803944
478,5.697,0.0127593341541472
479,5.704,0.0147612296852289
480,5.712,0.0161471573605931
481,5.719,0.0208329128344437
482,5.727,0.0247212099236601
483,5.734,0.00906902673283995
484,5.742,0.00443276867596664
485,5.749,0.0302594209121197
486,5.757,0.0159931653966638
487,5.765,0.0130783175080008
488,5.772,0.0139967695785795
489,5.780,0.0228238089395305
490,5.787,0.0274875655613912
491,5.795,0.0108179354660377
492,5.802,0.0111259193938964
493,5.810,0.0325638006580627
494,5.817,0.0240447452249704
495,5.825,0.0188915141463343
496,5.832,0.0261126373120219
497,5.840,0.0254196734743397
498,5.847,0.0101084724893631
499,5.855,0.0120058734734928
500,5.863,0.00355281459637029
501,5.870,0.0184515371065361
502,5.878,0.0191939983611955
503,5.885,0.0160151642486537
504,5.893,0.0237642598620991
505,5.900,0.0234782747862303
506,5.908,0.0118683806485559
507,5.915,0.0116648912676492
508,5.923,0.0129683232480513
509,5.930,0.00219988519899089
510,5.938,0.019325991473135
511,5.945,0.0162461521945477
512,5.953,0.021861359164972
513,5.960,0.0211188979103125
514,5.968,0.019430486020087
515,5.976,0.017758573268854
516,5.983,0.015569687495858
517,5.991,0.0196339754009937
518,5.998,0.0184790356715235
519,6.006,0.0131883117679504
520,6.013,0.0162241533425578
521,6.021,0.012445850513291
522,6.028,0.0137107845027107
523,6.036,0.0156191849128353
524,6.043,0.01872652275641
525,6.051,0.0266186109077898
526,6.058,0.0264976172218453
527,6.066,0.0284610147619446
528,6.074,0.0184020396895588
529,6.081,0.0176595784348994
530,6.089,0.0144092480533903
531,6.096,0
532,6.104,0.028499512752927
533,6.111,0.010993926281957
534,6.119,0.0232142885623514
535,6.126,0.00946500606865831
536,6.134,0.0165046387054292
537,6.141,0.0181655520306673
538,6.149,0.0280540360001313
539,6.156,0.0336142458405808
540,6.164,0.0258101530971606
541,6.171,0.0182700465776193
542,6.179,0.00947600549465326
543,6.187,0.0285215116049169
544,6.194,0.0249741967215441
545,6.202,0.0188915141463343
546,6.209,0.018000560640743
547,6.217,0.0177860718338414
548,6.224,0.014739230833239
549,6.232,0.0216578697840653
550,6.239,0.0278395471932297
551,6.247,0.0200904515797843
552,6.254,0.0294124651105082
553,6.262,0.0204149346466355
554,6.269,0.0315628528925218
555,6.277,0.0223783321867348
556,6.284,0.0257496562541884
557,6.292,0.0183635416985765
558,6.300,0.0150252159091078
559,6.307,0.00652265961500799
560,6.315,0.0187320224694074
561,6.322,0.0264811180828528
562,6.330,0.0101634696193379
563,6.337,0.0206624217315219
564,6.345,0.0288184961067807
565,6.352,0.0197659685129332
566,6.360,0.0255791651512666
567,6.367,0.0223398341957525
568,6.375,0.0177365744168641
569,6.382,0.02415473948492
570,6.390,0.0134247994268419
571,6.398,0.0147722291112238
572,6.405,0.0197934670779205
573,6.413,0.023659765315147
574,6.420,0.0235662701941899
575,6.428,0.0141617609685039
576,6.435,0.0289944869226999
577,6.443,0.021135397049305
578,6.450,0.0242042369018973
579,6.458,0.0221968416578181
580,6.465,0.0202884412476935
581,6.473,0.0208439122604387
582,6.480,0.0257001588372111
583,6.488,0.0153441992629615
584,6.495,0.0292694725725738
585,6.503,0.0278670457582171
586,6.511,0.00855755342407456
587,6.518,0.0183360431335891
588,6.526,0.0193754888901123
589,6.533,0.00691313923782887
590,6.541,0.0147942279632137
591,6.548,0.0120608706034676
592,6.556,0.014128762690519
593,6.563,0.0164386421494594
594,6.571,0.0139142738836174
595,6.578,0.0137052847897132
596,6.586,0.0182865457166118
597,6.593,0.0125008476432657
598,6.601,0.021861359164972
599,6.609,0.01691711718024
600,6.616,0.0269925913916182
601,6.624,0.0180940557617001
602,6.631,0.0142717552284534
603,6.639,0.0188365170163595
604,6.646,0.0292034760166041
605,6.654,0.0142937540804433
606,6.661,0.0157236794597874
607,6.669,0.0149922176311229
608,6.676,0.00757860451052362
609,6.684,0.00491674341974464
610,6.691,0.00557670897944191
611,6.699,0.0157016806077975
612,6.706,0.0184130391155538
613,6.714,0.0284830136139346
614,6.722,0.0156906811818025
615,6.729,0.0219548542859291
616,6.737,0.0141947592464887
617,6.744,0.0252106843804356
618,6.752,0.0121818642894121
619,6.759,0.0146512354252793
620,6.767,0.0153991963929362
621,6.774,0.00452076408392628
622,6.782,0.0110049257079519
623,6.789,0.0113734064787829
624,6.797,0.0145302417393348
625,6.804,0.0137327833547006
626,6.812,0.020766916278474
627,6.820,0.0332842630607322
628,6.827,0.0157786765897622
629,6.835,0.0118188832315786
630,6.842,0.0116648912676492
631,6.850,0.0199364596158549
632,6.857,0.0233737802392782
633,6.865,0.0174780879059826
634,6.872,0.0271410836425501
635,6.880,0.0321568218962493
636,6.887,0.0231372925803867
637,6.895,0.0145137426003424
638,6.902,0.0114009050437703
639,6.910,0.0168346214852778
640,6.917,0.0239567498170108
641,6.925,0.0253151789273877
642,6.933,0.0163616461674947
643,6.940,0.00211738950402873
644,6.948,0.0262391307109638
645,6.955,0.0220208508418988
646,6.963,0.0244517239867838
647,6.970,0.0101634696193379
648,6.978,0.0203104400996834
649,6.985,0.00680864469087681
650,6.993,0.0211848944662823
651,7.000,0.0350661700719148
652,7.008,0.0139197735966149
653,7.015,0.0225433235766592
654,7.023,0.0384979909823406
655,7.031,0.0254636711783196
656,7.038,0.0402359002895434
657,7.046,0.026437120378873
658,7.053,0.0149977173441204
659,7.061,0.0154871918008959
660,7.068,0.0110159251339469
661,7.076,0.00800208241132937
662,7.083,0.0231262931543917
663,7.091,0.0183855405505664
664,7.098,0.0240722437899578
665,7.106,0.0260961381730294
666,7.113,0.0222903367787752
667,7.121,0.0329982779848634
668,7.128,0.0176760775738918
669,7.136,0.01388677531863
670,7.144,0.00767759934447821
671,7.151,0.021850359738977
672,7.159,0.0190620052492561
673,7.166,0.0290109860616924
674,7.174,0.0208329128344437
675,7.181,0.0304574105800289
676,7.189,0.0287195012728261
677,7.196,0.0293739671195259
678,7.204,0.0248092053316198
679,7.211,0.0163836450194847
680,7.219,0.0216303712190779
681,7.226,0.040818869867276
682,7.234,0.0370515664640041
683,7.241,0.0358856273085389
684,7.249,0.025837651662148
685,7.257,0.0294454633884931
686,7.264,0.0319038350983654
687,7.272,0.0255571662992767
688,7.279,0.0223893316127298
689,7.287,0.0212453913092545
690,7.294,0.0343292085302528
691,7.302,0.0211683953272898
692,7.309,0.032959779993881
693,7.317,0.024270233457867
694,7.324,0.0113624070527879
695,7.332,0.0280430365741364
696,7.339,0.0123743542443238
