#"+EI TIC Scan MEOH-PEEK-2Hour.d "
#Point,X(Minutes),Y(Counts)
0,2.095,0.17829373360045
1,2.102,0.179988136996928
2,2.110,0.154593879019489
3,2.117,0.162384865697828
4,2.125,0.154141674897599
5,2.132,0.15754137817542
6,2.140,0.142280851122253
7,2.147,0.121790011333979
8,2.155,0.137938601903627
9,2.163,0.142253609910091
10,2.170,0.130708784195826
11,2.178,0.106856378826757
12,2.185,0.132359601652844
13,2.193,0.116091149749683
14,2.200,0.11730610781211
15,2.208,0.103058953851371
16,2.215,0.117186246478597
17,2.223,0.0909747521362967
18,2.230,0.104072326943798
19,2.238,0.110893526469169
20,2.245,0.105668661976493
21,2.253,0.0978504340859917
22,2.260,0.0919826769862916
23,2.268,0.0945760403841163
24,2.276,0.089901448377113
25,2.283,0.096199616628973
26,2.291,0.0958400326284343
27,2.298,0.0895636573463039
28,2.306,0.106665690341623
29,2.313,0.094679556990332
30,2.321,0.0914650939552132
31,2.328,0.0827206648512033
32,2.336,0.105848453976762
33,2.343,0.0860331962501055
34,2.351,0.0773704907825817
35,2.358,0.0753491928401595
36,2.366,0.0728702425334153
37,2.374,0.0759593959925889
38,2.381,0.0850960985517318
39,2.389,0.148791500828977
40,2.396,0.219019345782676
41,2.404,0.268004493492429
42,2.411,0.177530979659913
43,2.419,0.129602790982047
44,2.426,0.100209523059223
45,2.434,0.106998033129999
46,2.441,0.08792373637415
47,2.449,0.0957256195373538
48,2.456,0.0792337896944642
49,2.464,0.0827642507906626
50,2.471,0.0911599923789985
51,2.479,0.0710178401063976
52,2.487,0.0874170498279363
53,2.494,0.0824264597598535
54,2.502,0.0763843589023164
55,2.509,0.0956112064462733
56,2.517,0.0910019933484588
57,2.524,0.0930178430484486
58,2.532,0.0950445892333032
59,2.539,0.0856354745525399
60,2.547,0.0615052088194187
61,2.554,0.0889044200119829
62,2.562,0.0885993184357682
63,2.569,0.0915250246219696
64,2.577,0.0794680641190576
65,2.585,0.0862293329776721
66,2.592,0.0902065499533276
67,2.600,0.0865126415841571
68,2.607,0.0878365644952315
69,2.615,0.0992778736032818
70,2.622,0.0729574144123338
71,2.630,0.0860713339471323
72,2.637,0.070914323500182
73,2.645,0.0771961470247448
74,2.652,0.084829134672544
75,2.660,0.0759430512652916
76,2.667,0.0697865373166741
77,2.675,0.0822575642444489
78,2.682,0.0766622192663691
79,2.690,0.080078267271487
80,2.698,0.103451227306504
81,2.705,0.0745428529601636
82,2.713,0.0789668258152764
83,2.720,0.0721565227747703
84,2.728,0.0920698488652101
85,2.735,0.0806557809693219
86,2.743,0.107847958949455
87,2.750,0.0979811919043694
88,2.758,0.084316999883898
89,2.765,0.111296696409167
90,2.773,0.11769293302481
91,2.780,0.0974581606308585
92,2.788,0.0663922822812859
93,2.796,0.0613417615464466
94,2.803,0.102666680396238
95,2.811,0.104807839672173
96,2.818,0.0737419613226001
97,2.826,0.0570049605702523
98,2.833,0.0665175918572312
99,2.841,0.0741505795050304
100,2.848,0.0826280447298524
101,2.856,0.0702387414385637
102,2.863,0.0726795540482811
103,2.871,0.0682719259204656
104,2.878,0.0816637058193168
105,2.886,0.0859623690984842
106,2.893,0.0922768820776415
107,2.901,0.0916339894706177
108,2.909,0.0886973867995515
109,2.916,0.0784383462993331
110,2.924,0.0667137285847978
111,2.931,0.069906398650187
112,2.939,0.0657602861591269
113,2.946,0.108272921859182
114,2.954,1.50522952273996
115,2.961,17.1369889187652
116,2.969,57.5232845623016
117,2.976,100
118,2.984,18.7119450481551
119,2.991,0.285760315579636
120,2.999,0.153357127987333
121,3.006,0.126895014493142
122,3.014,0.107896993131346
123,3.022,0.0956493441433001
124,3.029,0.107575546827834
125,3.037,0.117671140055081
126,3.044,0.113470545139696
127,3.052,0.0982536040259896
128,3.059,0.0889806954060365
129,3.067,0.111242213984843
130,3.074,0.0829767322455264
131,3.082,0.0780787622987944
132,3.089,0.0887682139511728
133,3.097,0.0886047666782006
134,3.104,0.0772015952671772
135,3.112,0.0824210115174211
136,3.120,0.100204074816791
137,3.127,0.123833102246131
138,3.135,0.0849980301879486
139,3.142,0.0708325998636959
140,3.150,0.0644036737934581
141,3.157,0.0971312660849142
142,3.165,0.0814185349098586
143,3.172,0.0685824757391126
144,3.180,0.0858534042498361
145,3.187,0.0917701955314278
146,3.195,0.0761010502958314
147,3.202,0.0634665760950845
148,3.210,0.0592387399675383
149,3.217,0.0687840607091116
150,3.225,0.0911436476517013
151,3.233,0.0759376030228592
152,3.240,0.0701570178020777
153,3.248,0.0918464709254815
154,3.255,0.242108997211208
155,3.263,0.462849987602524
156,3.270,0.254612713593577
157,3.278,0.0797077867860834
158,3.285,0.0772996636309605
159,3.293,0.0631124403369782
160,3.300,0.0745918871420552
161,3.308,0.070135224832348
162,3.315,0.0850797538244346
163,3.323,0.067846963010738
164,3.331,0.0783130367233878
165,3.338,0.0538558764443223
166,3.346,0.0531585014129744
167,3.353,0.0711921838642346
168,3.361,0.070914323500182
169,3.368,0.0625567196088729
170,3.376,0.0601159069991555
171,3.383,0.0576042672378168
172,3.391,0.0613090720918521
173,3.398,0.0710668742882893
174,3.406,0.0554031772951252
175,3.413,0.0497642463775862
176,3.421,0.0570812359643059
177,3.428,0.0551362134159374
178,3.436,0.0527389867456793
179,3.444,0.0490069406794819
180,3.451,0.0516003040773066
181,3.459,0.0532511215343253
182,3.466,0.0423709813968128
183,3.474,0.0552833159616123
184,3.481,0.0794299264220308
185,3.489,0.110234289134848
186,3.496,0.0691545411945152
187,3.504,0.0558281402048528
188,3.511,0.0432263554587003
189,3.519,0.0387751413914255
190,3.526,0.0517855443200084
191,3.534,0.0521941625024388
192,3.542,0.0454710313408511
193,3.549,0.0436622148532927
194,3.557,0.0458306153413899
195,3.564,0.045939580190038
196,3.572,0.0577241285713297
197,3.579,0.0418642948505991
198,3.587,0.0360401236903583
199,3.594,0.0425562216395145
200,3.602,0.0470292286765189
201,3.609,0.0553977290526928
202,3.617,0.035053991810093
203,3.624,0.0264839064639201
204,3.632,0.0518727161989269
205,3.639,0.0424690497605961
206,3.647,0.0500094172870444
207,3.655,0.0381104558146722
208,3.662,0.0426924277003247
209,3.670,0.0365577067214368
210,3.677,0.0513551331678484
211,3.685,0.0540029789899972
212,3.692,0.0524175404421674
213,3.700,0.0488434934065098
214,3.707,0.044904414127881
215,3.715,0.0494700412862363
216,3.722,0.0419351220022204
217,3.730,0.0433571132770781
218,3.737,0.0455146172803104
219,3.745,0.0387969343611552
220,3.752,0.0640059520958925
221,3.760,0.0466859894032774
222,3.768,0.0542209086872934
223,3.775,0.0329455219887523
224,3.783,0.0291208558012041
225,3.790,0.0409598866068199
226,3.798,0.0386280388457506
227,3.805,0.0377672165414306
228,3.813,0.0357241256292788
229,3.820,0.034770683203608
230,3.828,0.0545804926878321
231,3.835,0.0440272470962638
232,3.843,0.0393145173922336
233,3.850,0.0385408669668321
234,3.858,0.0357186773868464
235,3.866,0.0219727617298889
236,3.873,0.047083711100843
237,3.881,0.0478573615262445
238,3.888,0.0487726662548885
239,3.896,0.0531966391100013
240,3.903,0.0344492369000961
241,3.911,0.0394180339984493
242,3.918,0.0282709299817489
243,3.926,0.0417335370322214
244,3.933,0.040153546726824
245,3.941,0.0414938143651956
246,3.948,0.0403932693938498
247,3.956,0.0336592417473974
248,3.963,0.0462991641905767
249,3.971,0.108300163071344
250,3.979,0.0485819777697543
251,3.986,0.0302758831968739
252,3.994,0.0456889610381473
253,4.001,0.0364160524181942
254,4.009,0.0408890594551986
255,4.016,0.039036657028181
256,4.024,0.0498078323170454
257,4.031,0.0450569649159884
258,4.039,0.0369227389644079
259,4.046,0.0429702880643773
260,4.054,0.0340624116873953
261,4.061,0.0405185789697951
262,4.069,0.0455745479470668
263,4.077,0.0424254638211368
264,4.084,0.0610747976672587
265,4.092,0.187386850220134
266,4.099,0.267824701492159
267,4.107,0.151123348590047
268,4.114,0.0581381949961925
269,4.122,0.0450569649159884
270,4.129,0.0218147626993491
271,4.137,0.0450678614008532
272,4.144,0.0389876228462893
273,4.152,0.0256067394323029
274,4.159,0.032389801260647
275,4.167,0.0421203622449221
276,4.174,0.0319375971387574
277,4.182,0.037919767329538
278,4.190,0.0391510701192615
279,4.197,0.0467677130397635
280,4.205,0.0365522584790044
281,4.212,0.0377999059960251
282,4.220,0.0325859379882136
283,4.227,0.0413957460014123
284,4.235,0.0374021842984595
285,4.242,0.0354299205379289
286,4.250,0.036399707690897
287,4.257,0.0371951510860281
288,4.265,0.0553650395980984
289,4.272,0.0337137241717214
290,4.280,0.0371079792071097
291,4.288,0.0304992611366025
292,4.295,0.0366121891457608
293,4.303,0.0249692950677116
294,4.310,0.0473724679497605
295,4.318,0.0351684049011735
296,4.325,0.0376528034503501
297,4.333,0.0492793528011022
298,4.340,0.0408018875762802
299,4.348,0.031959390108487
300,4.355,0.0479390851627306
301,4.363,0.035914814114413
302,4.370,0.0332669682922642
303,4.378,0.0435423535197798
304,4.385,0.0440980742478851
305,4.393,0.0349613716887421
306,4.401,0.0440381435811287
307,4.408,0.0596364616651038
308,4.416,0.131482434621227
309,4.423,0.130806852559609
310,4.431,0.0584596412997044
311,4.438,0.0449588965522051
312,4.446,0.0343893062333396
313,4.453,0.0428122890338376
314,4.461,0.033735517141451
315,4.468,0.0237761299750149
316,4.476,0.0532184320797309
317,4.483,0.037543838601702
318,4.491,0.031245670349842
319,4.498,0.0385190739971025
320,4.506,0.0345799947184738
321,4.514,0.039723135574664
322,4.521,0.0427523583670811
323,4.529,0.045051516673556
324,4.536,0.0267454221006756
325,4.544,0.0455146172803104
326,4.551,0.0457815811594982
327,4.559,0.037287771207379
328,4.566,0.0476775695259751
329,4.574,0.0442560732784249
330,4.581,0.0456072374016613
331,4.589,0.0296166458625529
332,4.596,0.0410579549706032
333,4.604,0.0352610250225244
334,4.612,0.0247241241582534
335,4.619,0.0382793513300767
336,4.627,0.0335775181109113
337,4.634,0.0268434904644589
338,4.642,0.0413412635770882
339,4.649,0.0318558735022713
340,4.657,0.0332342788376698
341,4.664,0.0362308121754925
342,4.672,0.0351139224768495
343,4.679,0.041297677637629
344,4.687,0.0414447801833039
345,4.694,0.0296547835595798
346,4.702,0.0342422036876647
347,4.709,0.0293333372560679
348,4.717,0.0442233838238304
349,4.725,0.0356151607806307
350,4.732,0.026374941615272
351,4.740,0.0252907413712235
352,4.747,0.0253179825833855
353,4.755,0.0428613232157292
354,4.762,0.0461248204327397
355,4.770,0.0301342288936314
356,4.777,0.0367374987217061
357,4.785,0.0329618667160495
358,4.792,0.0257429454931131
359,4.800,0.04324814842843
360,4.807,0.0420931210327601
361,4.815,0.0456889610381473
362,4.823,0.0316706332595696
363,4.830,0.0452694463708522
364,4.838,0.0737474095650325
365,4.845,0.0938132864435797
366,4.853,0.0355879195684687
367,4.860,0.047944533405163
368,4.868,0.0408509217581718
369,4.875,0.027491831313915
370,4.883,0.035053991810093
371,4.890,0.041243195213305
372,4.898,0.037919767329538
373,4.905,0.0352228873254976
374,4.913,0.0290336839222856
375,4.920,0.0351030259919847
376,4.928,0.0383229372695359
377,4.936,0.0246097110671729
378,4.943,0.0483313586178637
379,4.951,0.0367647399338681
380,4.958,0.0326949028368617
381,4.966,0.0240485420966352
382,4.973,0.0340733081722601
383,4.981,0.0315562201684891
384,4.988,0.0218746933661056
385,4.996,0.0319158041690278
386,5.003,0.0150970797801939
387,5.011,0.0294531985895808
388,5.018,0.0267181808885135
389,5.026,0.0421476034570842
390,5.034,0.0140564654756046
391,5.041,0.0241520587028508
392,5.049,0.0421421552146518
393,5.056,0.0336374487776677
394,5.064,0.0223813799123193
395,5.071,0.0396305154533131
396,5.079,0.0114522055929151
397,5.086,0.0320411137449731
398,5.094,0.0339970327782065
399,5.101,0.0396849978776372
400,5.109,0.038121352299537
401,5.116,0.038660728300345
402,5.124,0.0322753881695665
403,5.131,0.0329673149584819
404,5.139,0.0325151108365923
405,5.147,0.0324660766547007
406,5.154,0.0296493353171474
407,5.162,0.0367538434490033
408,5.169,0.0271322473133763
409,5.177,0.0356206090230631
410,5.184,0.0348415103552292
411,5.192,0.0415973309714113
412,5.199,0.0220926230634018
413,5.207,0.0251654317952782
414,5.214,0.0274210041622938
415,5.222,0.0278786565266158
416,5.229,0.0408236805460098
417,5.237,0.0299598851357944
418,5.245,0.0188454705736885
419,5.252,0.0313382904711929
420,5.260,0.0260099093723009
421,5.267,0.0143997047488461
422,5.275,0.0205562186974636
423,5.282,0.0157781100842445
424,5.290,0.0480752912235407
425,5.297,0.02004953215125
426,5.305,0.0418261571535723
427,5.312,0.0274700383441854
428,5.320,0.041472021395466
429,5.327,0.0207196659704358
430,5.335,0.0166062429339701
431,5.342,0.0285760315579636
432,5.350,0.0175215476626141
433,5.358,0.0265274924033794
434,5.365,0.025230810704467
435,5.373,0.0224467588215081
436,5.380,0.0272030744649976
437,5.388,0.0224957930033998
438,5.395,0.0265002511912173
439,5.403,0.0345527535063118
440,5.410,0.033223382352805
441,5.418,0.017586926571803
442,5.425,0.0210846982134069
443,5.433,0.0203164960304378
444,5.440,0.00971966449941031
445,5.448,0.0303412621060628
446,5.455,0.0244680567639303
447,5.463,0.0121168911696685
448,5.471,0.0305156058638997
449,5.478,0.016295693115323
450,5.486,0.0167696902069422
451,5.493,0.0281183791936416
452,5.501,0.0295785081655261
453,5.508,0.0471218487978698
454,5.516,0.0351357154465791
455,5.523,0.0272139709498624
456,5.531,0.0145522555369534
457,5.538,0.0144541871731702
458,5.546,0.0206161493642201
459,5.553,0.0374457702379188
460,5.561,0.0295785081655261
461,5.569,0.0263095627060832
462,5.576,0.01560921456884
463,5.584,0.0189054012404449
464,5.591,0.026091633008787
465,5.599,0.0137895015964168
466,5.606,0.0307062943490339
467,5.614,0.0257102560385186
468,5.621,0.0239886114298787
469,5.629,0.0191124344528763
470,5.636,0.0277751399204001
471,5.644,0.0251381905831161
472,5.651,0.0230024795496134
473,5.659,0.0266092160398654
474,5.666,0.0225448271852914
475,5.674,0.0349722681736069
476,5.682,0.0280530002844527
477,5.689,0.0195265008777391
478,5.697,0.0205235292428692
479,5.704,0.0245497804004164
480,5.712,0.025715704280951
481,5.719,0.0201258075453036
482,5.727,0.0247186759158209
483,5.734,0.0229479971252894
484,5.742,0.0304120892576841
485,5.749,0.0282491370120193
486,5.757,0.0231277891255587
487,5.764,0.0326840063519969
488,5.772,0.0320356655025407
489,5.780,0.0327602817460506
490,5.787,0.0204418056063831
491,5.795,0.00764933237509645
492,5.802,0.023400201247179
493,5.810,0.0341713765360434
494,5.817,0.0311149125314643
495,5.825,0.0292025794376902
496,5.832,0.0259717716752741
497,5.840,0.0151461139620856
498,5.847,0.0307662250157904
499,5.855,0.0388459685430468
500,5.862,0.0218637968812408
501,5.870,0.0213353173652975
502,5.877,0.0276116926474279
503,5.885,0.034825165627932
504,5.893,0.0192213993015244
505,5.900,0.0197989129993593
506,5.908,0.0352065425982004
507,5.915,0.0302758831968739
508,5.923,0.0181971297242323
509,5.930,0.023400201247179
510,5.938,0.0217602802750251
511,5.945,0.022566620155021
512,5.953,0.0284725149517479
513,5.960,0.0183605769972045
514,5.968,0.0337464136263158
515,5.975,0.0290990628314745
516,5.983,0.0195101561504419
517,5.991,0.0237161993082585
518,5.998,0.0132937115350679
519,6.006,0.0138712252329028
520,6.013,0.0141490855969555
521,6.021,0.0201857382120601
522,6.028,0.0255359122806817
523,6.036,0.0265819748277034
524,6.043,0.0192758817258485
525,6.051,0.0205126327580044
526,6.058,0.0205725634247608
527,6.066,0.0158816266904602
528,6.073,0.0268761799190533
529,6.081,0.0271213508285115
530,6.088,0.028810305982557
531,6.096,0.0251654317952782
532,6.104,0.0250619151890625
533,6.111,0.0365794996911664
534,6.119,0.0234056494896114
535,6.126,0.0282654817393165
536,6.134,0.0252144659771698
537,6.141,0.0299326439236324
538,6.149,0.0184858865731498
539,6.156,0.0204581503336803
540,6.164,0.0178920281480176
541,6.171,0.013173850201555
542,6.179,0.0283962395576942
543,6.186,0.0233239258531253
544,6.194,0.0267617668279728
545,6.201,0.0265165959185146
546,6.209,0.0343075825968535
547,6.217,0.0121768218364249
548,6.224,0.0204309091215183
549,6.232,0.0299108509539028
550,6.239,0.0293442337409327
551,6.247,0.0316706332595696
552,6.254,0.0298127825901195
553,6.262,0.0121223394121009
554,6.269,0.0220653818512398
555,6.277,0.0179574070572065
556,6.284,0.0180282342088278
557,6.292,0.0343620650211776
558,6.299,0.0392001043011531
559,6.307,0.0332124858679402
560,6.315,0.0239341290055546
561,6.322,0.0141490855969555
562,6.330,0.0266092160398654
563,6.337,0.022997031307181
564,6.345,0.0195591903323335
565,6.352,0.0218964863358352
566,6.360,0.0265383888882442
567,6.367,0.0199896014844935
568,6.375,0.0111198628045384
569,6.382,0.0367211539944089
570,6.390,0.0295894046503909
571,6.397,0.0217875214871871
572,6.405,0.0155274909323539
573,6.412,0.0159088679026223
574,6.420,0.0357350221141436
575,6.428,0.0179083728753148
576,6.435,0.0379796979962944
577,6.443,0.00758940170834
578,6.450,0.0149826666891134
579,6.458,0.020278358333411
580,6.465,0.0220108994269157
581,6.473,0.00707726691969394
582,6.480,0.0378979743598084
583,6.488,0.0280421037995879
584,6.495,0.0195319491201715
585,6.503,0.0244680567639303
586,6.510,0.0312783598044364
587,6.518,0.0150861832953291
588,6.526,0.0238633018539334
589,6.533,0.043961868187075
590,6.541,0.0210846982134069
591,6.548,0.0147320475372228
592,6.556,0.0160832116604592
593,6.563,0.013173850201555
594,6.571,0.0310985678041671
595,6.578,0.0279167942236426
596,6.586,0.0183333357850424
597,6.593,0.0117191694721029
598,6.601,0.0414229872135743
599,6.608,0.0142035680212795
600,6.616,0.0161649352969453
601,6.623,0.0212917314258383
602,6.631,0.0188672635434181
603,6.639,0.0239450254904195
604,6.646,0.0201203593028712
605,6.654,0.0279004494963454
606,6.661,0.0244898497336599
607,6.669,0.0274046594349966
608,6.676,0.0203873231820591
609,6.684,0
610,6.691,0.0172164460863994
611,6.699,0.00980138813589638
612,6.706,0.0146503239007367
613,6.714,0.0215096611231345
614,6.721,0.0145141178399266
615,6.729,0.0176577537234242
616,6.737,0.0287449270733682
617,6.744,0.0204581503336803
618,6.752,0.0172763767531559
619,6.759,0.0219945546996185
620,6.767,0.013577020141553
621,6.774,0.0146448756583043
622,6.782,0.0200168426966555
623,6.789,0.0223486904577248
624,6.797,0.0206161493642201
625,6.804,0.0163610720245119
626,6.812,0.0142689469304684
627,6.819,0.0120188228058852
628,6.827,0.0347870279309052
629,6.834,0.0137023297174983
630,6.842,0.0321773198057832
631,6.850,0.022795446337182
632,6.857,0.0197008446355761
633,6.865,0.022365035185022
634,6.872,0.037287771207379
635,6.880,0.00651064970672383
636,6.887,0.0241847481574453
637,6.895,0.0209757333647588
638,6.902,0.0227082744582635
639,6.910,0.0240049561571759
640,6.917,0.0380886628449425
641,6.925,0.0333214507165883
642,6.932,0.0229153076706949
643,6.940,0.0206815282734089
644,6.948,0.0203927714244915
645,6.955,0.0257320490082483
646,6.963,0.0230896514285319
647,6.970,0.0106894516523784
648,6.978,0.0280312073147231
649,6.985,0.0190851932407143
650,6.993,0.0275735549504011
651,7.000,0.0310767748344374
652,7.008,0.028352653618235
653,7.015,0.015892523175325
654,7.023,0.0177340291174779
655,7.030,0.0406547850306052
656,7.038,0.0394180339984493
657,7.045,0.0379633532689972
658,7.053,0.028352653618235
659,7.061,0.0136478472931742
660,7.068,0.0176795466931538
661,7.076,0.0337191724141538
662,7.083,0.0373204606619734
663,7.091,0.0230515137315051
664,7.098,0.0291208558012041
665,7.106,0.0190906414831467
666,7.113,0.028298171193911
667,7.121,0.0166498288734293
668,7.128,0.0290336839222856
669,7.136,0.0176196160263974
670,7.143,0.0268162492522968
671,7.151,0.026091633008787
672,7.158,0.0369172907219755
673,7.166,0.029698369499039
674,7.174,0.0259227374933824
675,7.181,0.0331961411406429
676,7.189,0.0268271457371616
677,7.196,0.0281456204058036
678,7.204,0.0385190739971025
679,7.211,0.0232204092469096
680,7.219,0.0264021828274341
681,7.226,0.0323516635636202
682,7.234,0.0398321004233121
683,7.241,0.0364596383576535
684,7.249,0.0436077324289687
685,7.256,0.0313164975014633
686,7.264,0.0274210041622938
687,7.272,0.0377944577535927
688,7.279,0.0449752412795023
689,7.287,0.047486881040841
690,7.294,0.0253779132501419
691,7.302,0.0201584969998981
692,7.309,0.0238687500963658
693,7.317,0.029872713256876
694,7.324,0.0141545338393879
695,7.332,0.0366503268427876
696,7.339,0.0342258589603675
