#"+EI TIC Scan MEOH-TPU.d "
#Point,X(Minutes),Y(Counts)
0,2.095,0.16458594353703
1,2.102,0.179706525407088
2,2.110,0.149112644460825
3,2.117,0.161741076890732
4,2.125,0.157612550904032
5,2.132,0.142168163074232
6,2.140,0.132852959482392
7,2.147,0.126423098281816
8,2.155,0.126625477006654
9,2.163,0.113759972356223
10,2.170,0.12692037171999
11,2.178,0.106335564279299
12,2.185,0.114818123974663
13,2.193,0.10295294844986
14,2.200,0.0911455954178681
15,2.208,0.0752386276455814
16,2.215,0.0736600735918431
17,2.223,0.0972227394122968
18,2.230,0.0829405836879972
19,2.238,0.0806161194769979
20,2.245,0.0856582408501109
21,2.253,0.0835766311089175
22,2.261,0.0946669852300537
23,2.268,0.0643795634956889
24,2.276,0.0854442976267105
25,2.283,0.0604823274802322
26,2.291,0.0815644083590971
27,2.298,0.0490508206515115
28,2.306,0.0802113620273214
29,2.313,0.0877051570956178
30,2.321,0.0906078462347265
31,2.328,0.0736947670875296
32,2.336,0.0773780598795858
33,2.343,0.0859010953199168
34,2.351,0.0740127907979897
35,2.358,0.0673285106290463
36,2.366,0.0696529748400456
37,2.374,0.0758920218143449
38,2.381,0.0881850837859485
39,2.389,0.105803597345439
40,2.396,0.216684009559677
41,2.404,0.243825887685127
42,2.411,0.172889253504679
43,2.419,0.0723995432485648
44,2.426,0.0749668619293701
45,2.434,0.0658887305580541
46,2.441,0.0607078352021949
47,2.449,0.0505310764674713
48,2.456,0.047530089090584
49,2.464,0.0584932337275363
50,2.472,0.0570418891579819
51,2.479,0.0570534536565441
52,2.487,0.0615983015914832
53,2.494,0.0676060585945387
54,2.502,0.0585105804753795
55,2.509,0.0516065748337546
56,2.517,0.049952851539362
57,2.524,0.0561514227686936
58,2.532,0.0612108908896499
59,2.539,0.0437022400665005
60,2.547,0.0539657325404405
61,2.554,0.0509647451635532
62,2.562,0.0533990721108934
63,2.569,0.0576201140860912
64,2.577,0.065882948308773
65,2.585,0.0669815756721807
66,2.592,0.0496753035738695
67,2.600,0.0487848371845812
68,2.607,0.0537113135720724
69,2.615,0.0430199346513315
70,2.622,0.0515545345902247
71,2.630,0.0448760366705624
72,2.637,0.0537286603199157
73,2.645,0.0405277852111805
74,2.652,0.0591408456470187
75,2.660,0.0638244675647039
76,2.667,0.0484494667262778
77,2.675,0.0511902528855159
78,2.683,0.0413662113569389
79,2.690,0.0562901967514398
80,2.698,0.0388393684211013
81,2.705,0.0576721543296211
82,2.713,0.0549140214225397
83,2.720,0.048588240709024
84,2.728,0.067247559139111
85,2.735,0.0592449261340783
86,2.743,0.0618700673076945
87,2.750,0.059349006621138
88,2.758,0.0623789052444307
89,2.765,0.0699941275476301
90,2.773,0.0934874063767108
91,2.780,0.0841837672834322
92,2.788,0.0405566964575859
93,2.796,0.0492763283734741
94,2.803,0.0524103074838265
95,2.811,0.0813389006371345
96,2.818,0.0581405165213896
97,2.826,0.0505484232153145
98,2.833,0.0579901780400812
99,2.841,0.0685948232216056
100,2.848,0.0343870364746598
101,2.856,0.0667907614459046
102,2.863,0.0538847810505052
103,2.871,0.039070658392345
104,2.878,0.0566255672097432
105,2.886,0.0495134005939989
106,2.893,0.050698761696623
107,2.901,0.0613670116202394
108,2.909,0.0515314055931003
109,2.916,0.0492763283734741
110,2.924,0.044477061470167
111,2.931,0.0721277775323534
112,2.939,0.056735429946084
113,2.946,0.0421872907548541
114,2.954,0.405341456853897
115,2.961,8.75044552230711
116,2.969,45.5458408627856
117,2.976,100
118,2.984,47.9721825238685
119,2.991,0.671457915517637
120,2.999,0.145556561152953
121,3.007,0.129187013438179
122,3.014,0.108463432014742
123,3.022,0.0841490737877457
124,3.029,0.0953724196423471
125,3.037,0.0939731153163226
126,3.044,0.0912496759049278
127,3.052,0.06650164898185
128,3.059,0.0695142008572994
129,3.067,0.0697570553271053
130,3.074,0.0512769866247323
131,3.082,0.0504732539746603
132,3.089,0.0644373859884998
133,3.097,0.0612976246288663
134,3.104,0.0525953394608214
135,3.112,0.046905606168226
136,3.120,0.0578109283123673
137,3.127,0.082865414447343
138,3.135,0.0670740916606782
139,3.142,0.0596265545866305
140,3.150,0.0411060101392898
141,3.157,0.0661604962742655
142,3.165,0.08242596350198
143,3.172,0.0526242507072269
144,3.180,0.048339603989937
145,3.187,0.0607887866921302
146,3.195,0.0487501436888946
147,3.202,0.0493630621126905
148,3.210,0.0424417097232222
149,3.218,0.0372434676195197
150,3.225,0.0399726892801955
151,3.233,0.0363819124766368
152,3.240,0.0586956124523745
153,3.248,0.040123027761504
154,3.255,0.0463967682314898
155,3.263,0.065877166059492
156,3.270,0.0502072705077301
157,3.278,0.035832598794933
158,3.285,0.0340690127641996
159,3.293,0.0271360958761692
160,3.300,0.0261762424955078
161,3.308,0.0471658073858752
162,3.315,0.062581283969269
163,3.323,0.0672128656434244
164,3.331,0.0300387850152779
165,3.338,0.0296629388120068
166,3.346,0.0294489955886064
167,3.353,0.0400131650251632
168,3.361,0.0309523804016905
169,3.368,0.0361679692532364
170,3.376,0.037260814367363
171,3.383,0.0251990423670031
172,3.391,0.0485015069698076
173,3.398,0.0406318656982401
174,3.406,0.0349421324056447
175,3.413,0.0268932414063633
176,3.421,0.0424995322160332
177,3.429,0.0267313384264927
178,3.436,0.0309234691552851
179,3.444,0.0307615661754145
180,3.451,0.036017630771928
181,3.459,0.0253493808483115
182,3.466,0.0216082655634443
183,3.474,0.0267949431685847
184,3.481,0.030732654929009
185,3.489,0.0881561725395431
186,3.496,0.0597306350736901
187,3.504,0.0281306427525172
188,3.511,0.0218684667810935
189,3.519,0.0406260834489591
190,3.526,0.0389723601545665
191,3.534,0.0237939557916975
192,3.542,0.0284197552165718
193,3.549,0.0227011106775709
194,3.557,0.0294027375943576
195,3.564,0.0333982718475929
196,3.572,0.036578508952194
197,3.579,0.0312357106164641
198,3.587,0.00971996104151724
199,3.594,0.0210473873831783
200,3.602,0.0176994650494255
201,3.609,0.029298657107298
202,3.617,0.0236725285567945
203,3.624,0.0298421885397207
204,3.632,0.0245803416939261
205,3.640,0.0145423569419488
206,3.647,0.0219956762652776
207,3.655,0.0226085946890734
208,3.662,0.0166066199352989
209,3.670,0.0197926392891812
210,3.677,0.0275466355751268
211,3.685,0.021648741308412
212,3.692,0.0153576540905829
213,3.700,0.0186419716822437
214,3.707,0.0124607472007553
215,3.715,0.0287724724227185
216,3.722,0.00892779289000751
217,3.730,0.0270782733833583
218,3.737,0.0161613867406548
219,3.745,0.0252048246162842
220,3.753,0.0259333880257019
221,3.760,0.0302006879951485
222,3.768,0.0176763360523011
223,3.775,0.0309870738973771
224,3.783,0.0139699142631206
225,3.790,0.0284660132108206
226,3.798,0.0301486477516186
227,3.805,0.0178613680292961
228,3.813,0.0236320528118269
229,3.820,0.0193069303495694
230,3.828,0.0265231774523733
231,3.835,0.014305284721424
232,3.843,0.0145828326869164
233,3.850,0.0245976884417694
234,3.858,0.0139178740195907
235,3.866,0.0231926018664638
236,3.873,0.0302642927372405
237,3.881,0.0103213149667509
238,3.888,0.0297496725512232
239,3.896,0.0269568461484553
240,3.903,0.022706892926852
241,3.911,0.00553361256200595
242,3.918,0.023452803084113
243,3.926,0.0210531696324594
244,3.933,0.0175202153217116
245,3.941,0.0112638215995691
246,3.948,0.0163290719698065
247,3.956,0.0216256123112876
248,3.964,0.0490970786457602
249,3.971,0.0777828173292623
250,3.979,0.0586840479538123
251,3.986,0.0302874217343649
252,3.994,0.0163406364683687
253,4.001,0.00629108721782913
254,4.009,0.022891924903847
255,4.016,0.0261242022519779
256,4.024,0.0144960989477
257,4.031,0.0254303323382468
258,4.039,0.0298074950440341
259,4.046,0.0198215505355866
260,4.054,0.0181215692469453
261,4.061,0.0210589518817405
262,4.069,0.0253667275961548
263,4.077,0.00320336610172549
264,4.084,0.0319180160316331
265,4.092,0.0195613493179374
266,4.099,0.0244300032126177
267,4.107,0.0278010545434949
268,4.114,0.0206310654349396
269,4.122,0.0181389159947886
270,4.129,0.0193184948481315
271,4.137,0.02475959142164
272,4.144,0.0218511200332502
273,4.152,0.0178613680292961
274,4.159,0.0155079925718913
275,4.167,0.00958118705877101
276,4.175,0.0264017502174704
277,4.182,0.023204166365026
278,4.190,0.0228456669095982
279,4.197,0.0127209484184045
280,4.205,0.00684618314881405
281,4.212,0.0197637280427757
282,4.220,0.0162539027291523
283,4.227,0.014305284721424
284,4.235,0.0258986945300153
285,4.242,0.0220881922537751
286,4.250,0.0231000858779663
287,4.257,0.0217470395461906
288,4.265,0.000555095930984923
289,4.272,0.0194977445758454
290,4.280,0.0177688520407986
291,4.288,0.00891622839144532
292,4.295,0.00681727190240859
293,4.303,0.00368329279205621
294,4.310,0.0359424615312738
295,4.318,0.0249504056479161
296,4.325,0.00999750900700971
297,4.333,0.0173178365968734
298,4.340,0.0273326923517264
299,4.348,0.0150916706236526
300,4.355,0.0208276619104968
301,4.363,0.00485708939611808
302,4.370,0.0202320902345442
303,4.378,0.0239616410208492
304,4.386,0.0150280658815606
305,4.393,0.0171964093619704
306,4.401,0.0170865466256297
307,4.408,0.02618780699407
308,4.416,0.0837443163380692
309,4.423,0.127550636891629
310,4.431,0.0517511310657819
311,4.438,0.0226201591876356
312,4.446,0.00989921076923113
313,4.453,0.00936146158608948
314,4.461,0.0234817143305185
315,4.468,0.0162828139755577
316,4.476,0.019283801352445
317,4.483,0.00404757449676506
318,4.491,0.0361274935082687
319,4.499,0.0155715973139833
320,4.506,0.0104947824451837
321,4.514,0.0202089612374199
322,4.521,0.0201858322402955
323,4.529,0.012877069148994
324,4.536,0.0214290158357305
325,4.544,0.0298537530382829
326,4.551,0.0267024271800872
327,4.559,0.0127729886619343
328,4.566,0.0226548526833222
329,4.574,0.0221691437437104
330,4.581,0.0282347232395769
331,4.589,0.0437080223157816
332,4.596,0.0105063469437459
333,4.604,0.0168089986601372
334,4.612,0.0307557839261334
335,4.619,0.0380876760145592
336,4.627,0.0304955827084842
337,4.634,0.0113158618430989
338,4.642,0.0227242396746953
339,4.649,0.0119634737625813
340,4.657,0.0133569958393247
341,4.664,0.0186997941750546
342,4.672,0.022458256207765
343,4.679,0.014929767643782
344,4.687,0.0257830495443935
345,4.694,0.0227011106775709
346,4.702,0.0219147247753423
347,4.710,0.0149644611394685
348,4.717,0.022024587511683
349,4.725,0.0279166995291168
350,4.732,0.030235381490835
351,4.740,0.017416134834652
352,4.747,0.0167627406658885
353,4.755,0.0315016940833944
354,4.762,0.0231636906200583
355,4.770,0.0214521448328548
356,4.777,0.0199661067676139
357,4.785,0.0189368663955794
358,4.792,0.0193242770974126
359,4.800,0.0234412385855508
360,4.807,0.0263381454753784
361,4.815,0.00207582749191237
362,4.823,0.0310969366337179
363,4.830,0.0321550882521579
364,4.838,0.0142879379735807
365,4.845,0.0184280284588432
366,4.853,0.0186824474272113
367,4.860,0.0260143395156372
368,4.868,0.0208854844033077
369,4.875,0.00636625645848334
370,4.883,0.0144845344491378
371,4.890,0.0167222649209208
372,4.898,0.0333115381083765
373,4.905,0.0210994276267082
374,4.913,0.00929785684399746
375,4.921,0.0348264874200228
376,4.928,0.0180984402498209
377,4.936,0.0239327297744437
378,4.943,0.0206946701770317
379,4.951,0.0163695477147741
380,4.958,0.00884684140007221
381,4.966,0.0233371580984911
382,4.973,0.00596728125808792
383,4.981,0.0143631072142349
384,4.988,0.0269741928962986
385,4.996,0.027309563354602
386,5.003,0.00152651381020854
387,5.011,0.0116801435478078
388,5.018,0.0297728015483476
389,5.026,0.021712346050504
390,5.034,0.00257310093008636
391,5.041,0.0237592622960109
392,5.049,0.0600775700305557
393,5.056,0.86859792250722
394,5.064,1.78115828629859
395,5.071,0.44027780701026
396,5.079,0.15469251501708
397,5.086,0.113812012599752
398,5.094,0.0881214790438565
399,5.101,0.0605228032251999
400,5.109,0.0504038669832872
401,5.116,0.0576201140860912
402,5.124,0.0352890673625103
403,5.132,0.0466049292056092
404,5.139,0.0329009984094189
405,5.147,0.0337683358015828
406,5.154,0.0271534426240125
407,5.162,0.0295299470785417
408,5.169,0.0256037998166796
409,5.177,0.0295010358321362
410,5.184,0.0247769381694833
411,5.192,0.0280439090133008
412,5.199,0.0402849307413746
413,5.207,0.0195902605643429
414,5.214,0.0236204883132647
415,5.222,0.0294143020929198
416,5.229,0.0363183077345448
417,5.237,0.0197752925413379
418,5.245,0.0361043645111444
419,5.252,0.0316578148139839
420,5.260,0.00933255033968402
421,5.267,0.0174681750781818
422,5.275,0.0301602122501808
423,5.282,0.030235381490835
424,5.290,0.0376829185648827
425,5.297,0.0275755468215323
426,5.305,0.0297207613048177
427,5.312,0.0181793917397562
428,5.320,0.00835535021117931
429,5.327,0.0166413134309855
430,5.335,0.022394651465673
431,5.343,0.0134552940771033
432,5.350,0.0187807456649899
433,5.358,0.0161902979870603
434,5.365,0.0237130043017622
435,5.373,0.0171732803648461
436,5.380,0.0252106068655653
437,5.388,0.0203708642172905
438,5.395,0.00883527690151002
439,5.403,0.0193127125988504
440,5.410,0.0253378163497493
441,5.418,0.0108821931470169
442,5.425,0.0261531134983834
443,5.433,0.0297207613048177
444,5.440,0.016300160723401
445,5.448,0.0226317236861978
446,5.456,0.035768994052841
447,5.463,0.055428641608557
448,5.471,0.0537807005634455
449,5.478,0.0258871300314531
450,5.486,0.0171617158662839
451,5.493,0.0292292701159248
452,5.501,0.0122872797223225
453,5.508,0.0160746530014384
454,5.516,0.0356822603136246
455,5.523,0.0107781126599573
456,5.531,0.0299636157746237
457,5.538,0.0273442568502885
458,5.546,0.01380801128325
459,5.553,0.0313918313470536
460,5.561,0.023389198342021
461,5.569,0.0239905522672546
462,5.576,0.0160283950071896
463,5.584,0.0116512323014023
464,5.591,0.0178151100350474
465,5.599,0.0136634550512226
466,5.606,0.022828320161755
467,5.614,0.0150685416265282
468,5.621,0.0286105694428479
469,5.629,0.0310969366337179
470,5.636,0.0196423008078727
471,5.644,0.0297728015483476
472,5.651,0.0220939745030562
473,5.659,0.00814718923705996
474,5.667,0.0142012042343643
475,5.674,0.0146233084318841
476,5.682,0.0278530947870247
477,5.689,0.0244300032126177
478,5.697,0.0412736953684415
479,5.704,0.02687589465852
480,5.712,0.0219841117667154
481,5.719,0.0362026627489229
482,5.727,0.0248694541579808
483,5.734,0.0318428467909789
484,5.742,0.0465818002084848
485,5.749,0.0336700375638042
486,5.757,0.0305649696998573
487,5.764,0.0282520699874201
488,5.772,0.0383074014872408
489,5.780,0.0217007815519418
490,5.787,0.0332421511170034
491,5.795,0.0338897630364858
492,5.802,0.0333057558590954
493,5.810,0.0134957698220709
494,5.817,0.0308136064189443
495,5.825,0.0129001981461184
496,5.832,0.0297207613048177
497,5.840,0.0245629949460828
498,5.847,0.0186130604358382
499,5.855,0.0274309905895049
500,5.862,0.0256384933123661
501,5.870,0.020220525735982
502,5.878,0.00441763845075501
503,5.885,0.021712346050504
504,5.893,0.0212613306065788
505,5.900,0.0194803978280021
506,5.908,0.0225854656919491
507,5.915,0.0240078990150979
508,5.923,0.0304377602156733
509,5.930,0.017791981037923
510,5.938,0.0175606910666793
511,5.945,0.0175144330724305
512,5.953,0.0180868757512587
513,5.960,0.0225739011933869
514,5.968,0.00577646703181185
515,5.975,0.0228225379124739
516,5.983,0.0185147621980596
517,5.991,0.0201453564953278
518,5.998,0.0200354937589871
519,6.006,0.020469162455069
520,6.013,0.0121600702381385
521,6.021,0.0361390580068309
522,6.028,0.0245572126968017
523,6.036,0.0357632118035599
524,6.043,0.0208797021540266
525,6.051,0.0257136625530203
526,6.058,0.0266156934408708
527,6.066,0.019532438071532
528,6.073,0.0343176494832866
529,6.081,0.0205212026985989
530,6.089,0.0363240899838259
531,6.096,0.0324442007162125
532,6.104,0.0316173390690162
533,6.111,0.0215677898184767
534,6.119,0.0212555483572977
535,6.126,0.0255286305760254
536,6.134,0.0350635596405476
537,6.141,0.0474491376006487
538,6.149,0.0200817517532358
539,6.156,0.03396493227714
540,6.164,0.00905500237419156
541,6.171,0.0306632679376359
542,6.179,0.0371046936367734
543,6.186,0.0247133334273913
544,6.194,0.0312472751150263
545,6.202,0.0241813664935307
546,6.209,0.0105352581901513
547,6.217,0.0373706771037037
548,6.224,0.0126457791777503
549,6.232,0.0340747950134807
550,6.239,0.0290962783824597
551,6.247,0.025135437624911
552,6.254,0.0314612183384267
553,6.262,0.00714686011143088
554,6.269,0.026939499400612
555,6.277,0.0180232710091667
556,6.284,0.0177746342900797
557,6.292,0.0255112838281821
558,6.299,0.0224062159642352
559,6.307,0.0160110482593464
560,6.315,0.0111077008689796
561,6.322,0.0164794104511149
562,6.330,0.0287551256748752
563,6.337,0.0187807456649899
564,6.345,0.0126457791777503
565,6.352,0.0240541570093467
566,6.360,0.00938459058321385
567,6.367,0.0161266932449682
568,6.375,0.0190929871261689
569,6.382,0.0148950741480954
570,6.390,0.0125763921863772
571,6.397,0.0142821557242996
572,6.405,0.0148025581595979
573,6.413,0
574,6.420,0.0117784417855863
575,6.428,0.0319411450287574
576,6.435,0.0181273514962264
577,6.443,0.0186535361808058
578,6.450,0.0201048807503602
579,6.458,0.0232909001042424
580,6.465,0.0215215318242279
581,6.473,0.026939499400612
582,6.480,0.0322476042406554
583,6.488,0.0502766574991032
584,6.495,0.0268469834121146
585,6.503,0.0232272953621504
586,6.510,0.0257252270515825
587,6.518,0.0300272205167157
588,6.526,0.0205443316957232
589,6.533,0.0383363127336462
590,6.541,0.0242970114791526
591,6.548,0.0190698581290445
592,6.556,0.0191450273696987
593,6.563,0.0251759133698787
594,6.571,0.03713938713246
595,6.578,0.0426672174451849
596,6.586,0.0325482812032722
597,6.593,0.037763870054818
598,6.601,0.0182372142325672
599,6.608,0.0270146686412663
600,6.616,0.0322071284956877
601,6.624,0.0262109359911943
602,6.631,0.0220997567523372
603,6.639,0.0128423756533074
604,6.646,0.0223368289728621
605,6.654,0.016109346497125
606,6.661,0.0278357480391814
607,6.669,0.0266388224379952
608,6.676,0.0246034706910505
609,6.684,0.0336642553145231
610,6.691,0.0260490330113237
611,6.699,0.0239963345165357
612,6.706,0.0253378163497493
613,6.714,0.0248521074101375
614,6.721,0.0214521448328548
615,6.729,0.013935220767434
616,6.737,0.0267024271800872
617,6.744,0.0214926205778225
618,6.752,0.0172195383590948
619,6.759,0.0232909001042424
620,6.767,0.0339302387814534
621,6.774,0.0485130714683698
622,6.782,0.0391631743808425
623,6.789,0.0202147434867009
624,6.797,0.0262629762347242
625,6.804,0.0193531883438181
626,6.812,0.0140739947501802
627,6.819,0.0304782359606409
628,6.827,0.0213654110936384
629,6.835,0.01380801128325
630,6.842,0.0324615474640558
631,6.850,0.0155947263111077
632,6.857,0.0235684480697349
633,6.865,0.0332884091112521
634,6.872,0.0156583310531997
635,6.880,0.0219725472681532
636,6.887,0.0205327671971611
637,6.895,0.160960473237784
638,6.902,1.25227329130486
639,6.910,1.88640678771304
640,6.917,0.683409824781657
641,6.925,0.312761863614318
642,6.932,0.231156979510253
643,6.940,0.156473447795656
644,6.948,0.121808863355504
645,6.955,0.124503391520493
646,6.963,0.0837500985873502
647,6.970,0.0928976169500393
648,6.978,0.0823912700062934
649,6.985,0.106115838806618
650,6.993,0.28918185104602
651,7.000,0.364767413648467
652,7.008,0.199713107919669
653,7.015,0.122624160504138
654,7.023,0.153894564616289
655,7.030,0.165991030112335
656,7.038,0.136056325584117
657,7.046,0.0928571412050716
658,7.053,0.0845075732431734
659,7.061,0.0623615584965874
660,7.068,0.0578398395587728
661,7.076,0.0622227845138412
662,7.083,0.0665421247268176
663,7.091,0.0739780973023032
664,7.098,0.0647554096989599
665,7.106,0.0473450571135891
666,7.113,0.0656458760882482
667,7.121,0.0580826940285787
668,7.128,0.0465760179592037
669,7.136,0.0473219281164647
670,7.143,0.055613673585552
671,7.151,0.0456913338191965
672,7.159,0.0612513666346176
673,7.166,0.0688608066885359
674,7.174,0.069612499095078
675,7.181,0.0648884014324251
676,7.189,0.162776099512048
677,7.196,0.435813910565257
678,7.204,0.316023052208854
679,7.211,0.136941009724124
680,7.219,0.087404480133001
681,7.226,0.105155985425956
682,7.234,0.136894751729876
683,7.241,0.117107894689975
684,7.249,0.0904690722519803
685,7.256,0.0772103746504341
686,7.264,0.0578282750602106
687,7.272,0.0619452365483487
688,7.279,0.0684733959867027
689,7.287,0.0601469570219288
690,7.294,0.0394869803405837
691,7.302,0.0560357777830718
692,7.309,0.0329935143979164
693,7.317,0.0456277290771044
694,7.324,0.0446910046935674
695,7.332,0.0452576651231145
