#"+EI TIC Scan MEOH-PET.d "
#Point,X(Minutes),Y(Counts)
0,2.095,0.177263402142741
1,2.102,0.159663486332029
2,2.110,0.179645565672825
3,2.117,0.131844264566711
4,2.125,0.145464152857873
5,2.132,0.132968037042818
6,2.140,0.128794861128938
7,2.148,0.151756108127749
8,2.155,0.0949002444146606
9,2.163,0.115333003342228
10,2.170,0.107472448991119
11,2.178,0.11125347513469
12,2.185,0.0883566109339901
13,2.193,0.10232182514229
14,2.200,0.0750761955783182
15,2.208,0.0744908974136786
16,2.215,0.111300298987861
17,2.223,0.096755639596568
18,2.230,0.0896618258411364
19,2.238,0.0837912852498015
20,2.245,0.0612338939845923
21,2.253,0.0694865981060103
22,2.261,0.0796122563542749
23,2.268,0.0794776377764078
24,2.276,0.0832352519933938
25,2.283,0.0682574719602671
26,2.291,0.0873674570357492
27,2.298,0.0738880403040999
28,2.306,0.0776105366312076
29,2.313,0.0758956130088136
30,2.321,0.0649095664585288
31,2.328,0.0799868471796442
32,2.336,0.0555682077508812
33,2.343,0.0502888183058322
34,2.351,0.0496332843614359
35,2.358,0.0522905380288996
36,2.366,0.0607480965079414
37,2.374,0.0568500107314418
38,2.381,0.0468121472078731
39,2.389,0.0626269036164344
40,2.396,0.181495107873086
41,2.404,0.261856545878099
42,2.411,0.237929556907633
43,2.419,0.0829952797458916
44,2.426,0.0509502052318749
45,2.434,0.0633936442121123
46,2.441,0.0453137839063958
47,2.449,0.0640140602666302
48,2.456,0.0589922020140227
49,2.464,0.0707274302150462
50,2.472,0.0609178329756869
51,2.479,0.0647339770091369
52,2.487,0.0559018277047257
53,2.494,0.0589453781608515
54,2.502,0.0520213008731654
55,2.509,0.0482402747295937
56,2.517,0.0552521467419758
57,2.524,0.0234411914938149
58,2.532,0.0511375006445596
59,2.539,0.0465663219787245
60,2.547,0.0480763912434946
61,2.554,0.0415854345976418
62,2.562,0.0565807735757076
63,2.569,0.035510039648683
64,2.577,0.0597238247198222
65,2.585,0.0403387495069595
66,2.592,0.0600691506369595
67,2.600,0.0499844632602196
68,2.607,0.0461097894103057
69,2.615,0.034889623594165
70,2.622,0.0324138123577396
71,2.630,0.0562939774750343
72,2.637,0.0475262109687334
73,2.645,0.0508682634888254
74,2.652,0.0472335618864136
75,2.660,0.0481817449131298
76,2.667,0.0492001637196026
77,2.675,0.0486207185366094
78,2.683,0.0443421889530941
79,2.690,0.0316002479088906
80,2.698,0.0256477655745061
81,2.705,0.0714473469575528
82,2.713,0.0637155582026641
83,2.720,0.0555272368793564
84,2.728,0.0737592747078791
85,2.735,0.0933023804251945
86,2.743,0.0580674309138922
87,2.750,0.0685091501710622
88,2.758,0.0826909247002791
89,2.765,0.0548892618798993
90,2.773,0.0872738093294069
91,2.780,0.096000604964183
92,2.788,0.0544034644032484
93,2.796,0.0505404965166272
94,2.803,0.0621352531581372
95,2.811,0.0945080946443521
96,2.818,0.0705693997105935
97,2.826,0.0498732566089381
98,2.833,0.0470989433085465
99,2.841,0.0379565859768764
100,2.848,0.0697558352617445
101,2.856,0.0687666813635036
102,2.863,0.0457586105115219
103,2.871,0.0462502609698192
104,2.878,0.0416439644141057
105,2.886,0.0743445728725187
106,2.894,0.0794308139232366
107,2.901,0.0488255728942333
108,2.909,0.0424750878078939
109,2.916,0.0545146710545299
110,2.924,0.0615792199017296
111,2.931,0.0595716471970159
112,2.939,0.0574118969694958
113,2.946,0.0437510378068082
114,2.954,0.170784151460181
115,2.961,5.10930765138635
116,2.969,36.7663411882103
117,2.976,100
118,2.984,96.4699614153891
119,2.991,2.87444611039812
120,2.999,0.194705287449001
121,3.007,0.153348119135568
122,3.014,0.134343487729721
123,3.022,0.0910841003812106
124,3.029,0.0998869847773897
125,3.037,0.0890179978600329
126,3.044,0.114689175361125
127,3.052,0.0998635728508042
128,3.059,0.0702474857200417
129,3.067,0.0778563618603562
130,3.074,0.0716639072784695
131,3.082,0.0581786375651737
132,3.089,0.0655416884763395
133,3.097,0.0579737832075498
134,3.105,0.0443070710632158
135,3.112,0.0472569738129992
136,3.120,0.076123879293023
137,3.127,0.0839259038276686
138,3.135,0.0852311187348148
139,3.142,0.0552521467419758
140,3.150,0.0497210790861318
141,3.157,0.0706337825087038
142,3.165,0.071494170810724
143,3.172,0.0620708703600268
144,3.180,0.0471925910148889
145,3.187,0.0679765288412402
146,3.195,0.0561008290807032
147,3.202,0.0305350052492466
148,3.210,0.0464375563825038
149,3.218,0.0276728972241591
150,3.225,0.0567739219700387
151,3.233,0.0429901501927767
152,3.240,0.0514184437635866
153,3.248,0.0267305671790894
154,3.255,0.0533148098170188
155,3.263,0.0555389428426492
156,3.270,0.0492411345911274
157,3.278,0.0375059063901039
158,3.285,0.0394139784068289
159,3.293,0.0477661832162357
160,3.300,0.0374532295552864
161,3.308,0.0272514825456186
162,3.315,0.0606485958199527
163,3.323,0.0441197756505311
164,3.331,0.0240264896584545
165,3.338,0.0290542008927085
166,3.346,0.0267598320873213
167,3.353,0.0597413836647613
168,3.361,0.0290717598376477
169,3.368,0.0134208869151854
170,3.376,0.0295692632775913
171,3.383,0.0328703449261585
172,3.391,0.0193909281945091
173,3.398,0.0254312052535895
174,3.406,0.0283635490584338
175,3.413,0.0114016082471789
176,3.421,0.0363587219874104
177,3.429,0.0291302896541116
178,3.436,0.0375410242799823
179,3.444,0.0224052137424029
180,3.451,0.0240089307135153
181,3.459,0.0411171960659301
182,3.466,0.0276494852975735
183,3.474,0.0222354772746574
184,3.481,0.0508507045438862
185,3.489,0.0629078467354614
186,3.496,0.093220438682145
187,3.504,0.0430720919358263
188,3.511,0.0273743951601929
189,3.519,0.0308569192397984
190,3.526,0.0503766130305282
191,3.534,0.0369147552438179
192,3.542,0.0213399710827589
193,3.549,0.0182847146633403
194,3.557,0.0275499846095848
195,3.564,0.0323435765779829
196,3.572,0.0163064068668585
197,3.579,0.0275792495178167
198,3.587,0.0324664891925572
199,3.594,0.0241084314015041
200,3.602,0.0275207197013528
201,3.609,0.0197128421850609
202,3.617,0.021503854568858
203,3.624,0.00833464586446754
204,3.632,0.0164819963162504
205,3.640,0.0283284311685554
206,3.647,0.0324430772659716
207,3.655,0.0131165318695729
208,3.662,0.0195606646622546
209,3.670,0.0384072655636489
210,3.677,0.0124785568701157
211,3.685,0.0331044641920143
212,3.692,0.0196426064053041
213,3.700,0.0174477382879057
214,3.707,0.0208366146611688
215,3.715,0.0292473492870395
216,3.722,0.0124727038884693
217,3.730,0.0186534525070632
218,3.737,0.0178047701683358
219,3.745,0.0205381125972027
220,3.753,0.0131575027410976
221,3.760,0.0152294582439217
222,3.768,0.0189987784242006
223,3.775,0.0397475983606735
224,3.783,0.041796141936912
225,3.790,0.0110153114585168
226,3.798,0.0442485412467518
227,3.805,0.0232012192463127
228,3.813,0.0109333697154672
229,3.820,0.022007210990448
230,3.828,0.0310032437809582
231,3.835,0.00340643531820232
232,3.843,0.0222354772746574
233,3.851,0.0277723979121478
234,3.858,0.0250566144282202
235,3.866,0.0261452690144498
236,3.873,0.016757086453631
237,3.881,0.0113079605408366
238,3.888,0.0240908724565649
239,3.896,0.00884970824935036
240,3.903,0.0227212747513083
241,3.911,0.019256309616642
242,3.918,0.0251678210795017
243,3.926,0.0169385288846693
244,3.933,0.0104300132938772
245,3.941,0.0235582511267429
246,3.948,0.0283284311685554
247,3.956,0.031857779101332
248,3.964,0.015884992188318
249,3.971,0.0639262655419343
250,3.979,0.0622523127910651
251,3.986,0.0404558091398874
252,3.994,0.0290366419477693
253,4.001,0.0227973635127114
254,4.009,0.0170790004441828
255,4.016,0.0124668509068229
256,4.024,0.0234704564020469
257,4.031,0.00104183073305844
258,4.039,0.0297448527269832
259,4.046,0.0249102898870603
260,4.054,0.0139476552633611
261,4.061,0.0234002206222902
262,4.069,0.0255189999782854
263,4.077,0.0280065171780036
264,4.084,0.0218374745227025
265,4.092,0.0340936180902552
266,4.099,0.0203449642028716
267,4.107,0.0129643543467666
268,4.114,0.0190807201672501
269,4.122,0.0165932029675319
270,4.129,0.0213926479175764
271,4.137,0.0345911215301988
272,4.144,0.026636919472747
273,4.152,0.0429608852845448
274,4.159,0.0405143389563513
275,4.167,0.0253375575472472
276,4.175,0.0136140353095165
277,4.182,0.0393203307004866
278,4.190,0.0320099566241383
279,4.197,0.0208600265877544
280,4.205,0.0246176408047405
281,4.212,0.0208951444776328
282,4.220,0.00812979150684369
283,4.227,0.0181442431038268
284,4.235,0.0170907064074756
285,4.242,0.0318285141931
286,4.250,0.0275441316279384
287,4.257,0.0208132027345833
288,4.265,0.0228968642007001
289,4.272,0.0159961988395996
290,4.280,0.0210882928719639
291,4.288,0.0246469057129725
292,4.295,0.0265725366746367
293,4.303,0.020661025211777
294,4.310,0.0341404419434264
295,4.318,0.019033896314079
296,4.325,0.0250039375934026
297,4.333,0.0283928139666657
298,4.340,0.021697002963189
299,4.348,0.0309915378176655
300,4.355,0.0275968084627559
301,4.363,0.0273978070867785
302,4.370,0.0332215238249422
303,4.378,0.0238391942457699
304,4.386,0.0137779187956156
305,4.393,0.0117176692560843
306,4.401,0.0132043265942688
307,4.408,0.0215272664954435
308,4.416,0.0386823557010295
309,4.423,0.117843932468532
310,4.431,0.0708620487929133
311,4.438,0.0329698456141472
312,4.446,0.0385770020313943
313,4.453,0.0337482921731179
314,4.461,0.0229553940171641
315,4.468,0.016786351361863
316,4.476,0.0245942288781549
317,4.483,0.0206259073218986
318,4.491,0.00866826581831209
319,4.499,0.0201693747534797
320,4.506,0.00936477063423319
321,4.514,0.0274914547931208
322,4.521,0.010664132559733
323,4.529,0.0194670169559122
324,4.536,0.0171024123707684
325,4.544,0.0334614960724445
326,4.551,0.0310090967626046
327,4.559,0.0248049362174252
328,4.566,0.0149894859964195
329,4.574,0.024980525666817
330,4.581,0.0158498742984397
331,4.589,0.0164644373713112
332,4.597,0.00972765549630972
333,4.604,0.0332800536414062
334,4.612,0.027450483921596
335,4.619,0.0195899295704865
336,4.627,0.0154577245281312
337,4.634,0.0163415247567369
338,4.642,0.0165990559491783
339,4.649,0.0142929811804984
340,4.657,0.0156508729224622
341,4.664,0.0101783350830822
342,4.672,0.022879305255761
343,4.679,0.0269003036468348
344,4.687,0.0165522320960072
345,4.694,0.0243132857591279
346,4.702,0.0130755609980481
347,4.710,0.0195196937907298
348,4.717,0.00851608829550581
349,4.725,0.0300257958460102
350,4.732,0.032167987128591
351,4.740,0.0272397765823258
352,4.747,0.0409064887266598
353,4.755,0.0221067116784367
354,4.762,0.0226568919531979
355,4.770,0.029446350663017
356,4.777,0.0272046586924474
357,4.785,0.0119986123751113
358,4.792,0.0232656020444231
359,4.800,0.0245591109882765
360,4.807,0.0260808862163394
361,4.815,0.00335961146503116
362,4.823,0.0285566974527648
363,4.830,0.01159475664151
364,4.838,0.00927697590953725
365,4.845,0.0318168082298073
366,4.853,0.0244069334654702
367,4.860,0.042077085055939
368,4.868,0.0177345343885791
369,4.875,0.0157971974636221
370,4.883,0.015381635766728
371,4.890,0.0302189442403412
372,4.898,0.0244537573186414
373,4.905,0.0250741733731594
374,4.913,0.025068320391513
375,4.921,0.0192446036533492
376,4.928,0.0212170584681846
377,4.936,0.0222647421828894
378,4.943,0.046484380235675
379,4.951,0.017910123837971
380,4.958,0
381,4.966,0.0161132584725275
382,4.973,0.0290542008927085
383,4.981,0.0131048259062801
384,4.988,0.0193499573229843
385,4.996,0.000169736467745477
386,5.003,0.0239621068603442
387,5.011,0.019759666038232
388,5.018,0.0125722045764581
389,5.026,0.0235699570900357
390,5.034,0.0023411926585583
391,5.041,0.00184954220026105
392,5.049,0.0248985839237675
393,5.056,0.00766740595677842
394,5.064,0.0286737570856927
395,5.071,0.0369791380419283
396,5.079,0.0299965309377782
397,5.086,0.0225749502101484
398,5.094,0.0134852697132958
399,5.101,0.0248810249788283
400,5.109,0.0201459628268941
401,5.116,0.0164995552611896
402,5.124,0.0193031334698132
403,5.132,0.00285040206179473
404,5.139,0.0228149224576506
405,5.147,0.0222471832379502
406,5.154,0.024758112364254
407,5.162,0.0155104013629487
408,5.169,0.0311963921752893
409,5.177,0.0176760045721151
410,5.184,0.0377634375825453
411,5.192,0.0243074327774815
412,5.199,0.0104358662755236
413,5.207,0.0182788616816939
414,5.214,0.0297507057086296
415,5.222,0.0116591394396203
416,5.229,0.0222823011278286
417,5.237,0.010693397467965
418,5.245,0.00633292614140019
419,5.252,0.0185246869108425
420,5.260,0.0123673502188342
421,5.267,0.0244420513553486
422,5.275,0.019847460762928
423,5.282,0.0265081538765263
424,5.290,0.0207254080098873
425,5.297,0.0181091252139484
426,5.305,0.0162654359953338
427,5.312,0.0308393602948592
428,5.320,0.0143515109969624
429,5.327,0.0372015513444913
430,5.335,0.0148724263634916
431,5.343,0.00740987476433701
432,5.350,0.0125253807232869
433,5.358,0.0103363655875349
434,5.365,0.0163298187934441
435,5.373,0.0196894302584753
436,5.380,0.0284981676363009
437,5.388,0.00954621306527146
438,5.395,0.0355451575385613
439,5.403,0.0258292080055444
440,5.410,0.022258889201243
441,5.418,0.00663142820536638
442,5.425,0.0169560878296085
443,5.433,0.0198708726895135
444,5.440,0.0114425791187037
445,5.448,0.0155630781977663
446,5.456,0.0199001375977455
447,5.463,0.0374883474451647
448,5.471,0.0435754483574163
449,5.478,0.0210824398903175
450,5.486,0.0409357536348918
451,5.493,0.0355978343733789
452,5.501,0.0271461288759835
453,5.508,0.0233299848425334
454,5.516,0.022762245622833
455,5.523,0.0230373357602136
456,5.531,0.0210531749820855
457,5.538,0.0161132584725275
458,5.546,0.00921844609307329
459,5.554,0.023973812823637
460,5.561,0.0186007756722457
461,5.569,0.0118405818706586
462,5.576,0.0177345343885791
463,5.584,0.00947597728551471
464,5.591,0.0252087919510265
465,5.599,0.00244654632819342
466,5.606,0.0166341738390567
467,5.614,0.0046706793538238
468,5.621,0.0254136463086503
469,5.629,0.018916836681151
470,5.636,0.0307281536435776
471,5.644,0.0144100408134263
472,5.651,0.0385067662516376
473,5.659,0.0137662128323228
474,5.667,0.0130228841632305
475,5.674,0.0267013022708574
476,5.682,0.0283694020400802
477,5.689,0.0318051022665145
478,5.697,0.0193206924147523
479,5.704,0.0291771135072828
480,5.712,0.0274856018114744
481,5.719,0.028884464424963
482,5.727,0.0353812740524623
483,5.734,0.0340643531820232
484,5.742,0.033233229788235
485,5.749,0.0250800263548058
486,5.757,0.0222354772746574
487,5.764,0.0110972532015663
488,5.772,0.0258350609871908
489,5.780,0.0132160325575616
490,5.787,0.0293234380484427
491,5.795,0.0351120368967281
492,5.802,0.0193323983780451
493,5.810,0.0183081265899259
494,5.817,0.0231895132830199
495,5.825,0.0144861295748295
496,5.832,0.0115128148984604
497,5.840,0.0278367807102582
498,5.847,0.00915991627660934
499,5.855,0.0121507898979176
500,5.862,0.00600515916920203
501,5.870,0.020661025211777
502,5.878,0.0294639096079562
503,5.885,0.00458288462912787
504,5.893,0.0274621898848888
505,5.900,0.012408321090359
506,5.908,0.00351178898783745
507,5.915,0.0247054355294364
508,5.923,0.0122619965491991
509,5.930,0.0175647979208336
510,5.938,0.0211819405783062
511,5.945,0.0203976410376892
512,5.953,0.0233182788792406
513,5.960,0.0257121483726165
514,5.968,0.0112728426509582
515,5.975,0.0159025511332572
516,5.983,0.0299262951580214
517,5.991,0.021755532779653
518,5.998,0.0267422731423821
519,6.006,0.0310910385056542
520,6.013,0.0245181401167518
521,6.021,0.0169736467745477
522,6.028,0.0335668497420796
523,6.036,0.0316704836886474
524,6.043,0.0422351155603917
525,6.051,0.0430779449174727
526,6.058,0.053390898578422
527,6.066,0.0243484036490063
528,6.073,0.0353812740524623
529,6.081,0.0355568635018541
530,6.089,0.0449450460626729
531,6.096,0.023130983466556
532,6.104,0.0300199428643638
533,6.111,0.0226393330082587
534,6.119,0.0294814685528954
535,6.126,0.0242898738325423
536,6.134,0.0720384981038388
537,6.141,0.046987736657265
538,6.149,0.0517813286256631
539,6.156,0.0397124804707951
540,6.164,0.0533265157803116
541,6.171,0.0487085132613054
542,6.179,0.026695449289211
543,6.186,0.0309505669461407
544,6.194,0.0349540063922754
545,6.202,0.0236811637413172
546,6.209,0.0388755040953605
547,6.217,0.0491416339031387
548,6.224,0.0349423004289826
549,6.232,0.0399231878100654
550,6.239,0.0450386937690152
551,6.247,0.0201927866800653
552,6.254,0.0300784726808277
553,6.262,0.0416322584508129
554,6.269,0.0303008859833908
555,6.277,0.0299380011213142
556,6.284,0.0240733135116257
557,6.292,0.0500137281684516
558,6.300,0.0299555600662534
559,6.307,0.0267539791056749
560,6.315,0.031887044009564
561,6.322,0.0334439371275053
562,6.330,0.0310500676341294
563,6.337,0.0270115102981164
564,6.345,0.0242371969977248
565,6.352,0.00992665687228718
566,6.360,0.0369206082254643
567,6.367,0.0227680986044794
568,6.375,0.0555565017875884
569,6.382,0.0132043265942688
570,6.390,0.0210941458536103
571,6.397,0.0267598320873213
572,6.405,0.0227446866778939
573,6.413,0.0324899011191428
574,6.420,0.026414506170184
575,6.428,0.0241611082363216
576,6.435,0.037078638729917
577,6.443,0.0190690142039573
578,6.450,0.0340292352921448
579,6.458,0.0145739242995254
580,6.465,0.0260106504365827
581,6.473,0.0330459343755504
582,6.480,0.0335844086870188
583,6.488,0.00648510366420648
584,6.495,0.0355744224467933
585,6.503,0.0311905391936429
586,6.510,0.0150831337027618
587,6.518,0.0419834373495967
588,6.526,0.0342048247415367
589,6.533,0.0247932302541324
590,6.541,0.0482753926194721
591,6.548,0.0339297346041561
592,6.556,0.0433764469814388
593,6.563,0.0323962534128004
594,6.571,0.0520037419282262
595,6.578,0.0434876536327204
596,6.586,0.0248400541073035
597,6.593,0.0406196926259865
598,6.601,0.02088343851434
599,6.608,0.0467184995015308
600,6.616,0.0225925091550876
601,6.624,0.0313310107531564
602,6.631,0.0205205536522635
603,6.639,0.0265081538765263
604,6.646,0.0349715653372146
605,6.654,0.0409767245064166
606,6.661,0.0335668497420796
607,6.669,0.0340175293288521
608,6.676,0.0296629109839336
609,6.684,0.0274036600684249
610,6.691,0.00405611628095225
611,6.699,0.0528992481201247
612,6.706,0.0411874318456868
613,6.714,0.015352370858496
614,6.721,0.0354163919423406
615,6.729,0.0243659625939455
616,6.737,0.0233475437874726
617,6.744,0.0345735625852596
618,6.752,0.0340819121269624
619,6.759,0.031857779101332
620,6.767,0.0381380284079147
621,6.774,0.0196191944787185
622,6.782,0.0223993607607565
623,6.789,0.0321621341469446
624,6.797,0.0500429930766836
625,6.804,0.020631760303545
626,6.812,0.03132515777151
627,6.819,0.048954338490454
628,6.827,0.0421648797806349
629,6.835,0.0370727857482706
630,6.842,0.0492411345911274
631,6.850,0.0438563914764433
632,6.857,0.0319221618994424
633,6.865,0.0303652687815011
634,6.872,0.0570138942175409
635,6.880,0.0304062396530259
636,6.887,0.0306052410290033
637,6.895,0.0534962522480571
638,6.902,0.0568324517865027
639,6.910,0.0391915651042659
640,6.917,0.0342633545580007
641,6.925,0.0381146164813291
642,6.932,0.0259228557118867
643,6.940,0.0346028274934916
644,6.948,0.0460219946856097
645,6.955,0.0303242979099763
646,6.963,0.0315417180924267
647,6.970,0.0370259618950995
648,6.978,0.0408830768000743
649,6.985,0.036856225427354
650,6.993,0.0367040479045477
651,7.000,0.0431832985871078
652,7.008,0.0378746442338269
653,7.015,0.0562003297686919
654,7.023,0.0887253487777131
655,7.030,0.124838245535975
656,7.038,0.158030504452685
657,7.046,0.134811726261433
658,7.053,0.0867411879995849
659,7.061,0.0746255159915457
660,7.068,0.0751874022295997
661,7.076,0.0722316464981699
662,7.083,0.0655826593478643
663,7.091,0.0715585536088343
664,7.098,0.0544210233481876
665,7.106,0.0687608283818572
666,7.113,0.0493581942240553
667,7.121,0.0617372504061823
668,7.128,0.0715585536088343
669,7.136,0.0477310653263573
670,7.143,0.0575757804555949
671,7.151,0.0581025488037705
672,7.159,0.0583191091246872
673,7.166,0.100249869639466
674,7.174,0.0988802719342097
675,7.181,0.0666303430625691
676,7.189,0.0685559740242333
677,7.196,0.0580615779322458
678,7.204,0.0776515075027323
679,7.211,0.0728754744792734
680,7.219,0.0657933666871345
681,7.226,0.11364149164642
682,7.234,0.161033084037286
683,7.241,0.197292305336708
684,7.249,0.172815136091481
685,7.257,0.137767481992863
686,7.264,0.113928287747093
687,7.272,0.09181572308701
688,7.279,0.0990500084019551
689,7.287,0.0802853492436104
690,7.294,0.06711614053922
691,7.302,0.0827084836452182
692,7.309,0.0677775274652627
693,7.317,0.0578450176113291
694,7.324,0.0732734772312283
