#"+EI TIC Scan MEOH-Blank2.d "
#Point,X(Minutes),Y(Counts)
0,2.095,0.221867111897886
1,2.102,0.191158163571292
2,2.110,0.189875824190039
3,2.117,0.182680164343271
4,2.125,0.170276750677442
5,2.132,0.149832117136159
6,2.140,0.147093846579684
7,2.148,0.136219160647838
8,2.155,0.144097988199902
9,2.163,0.126402824685671
10,2.170,0.13391766944393
11,2.178,0.131330591740267
12,2.185,0.125198881598469
13,2.193,0.131033805769934
14,2.200,0.118188013016249
15,2.208,0.122544607071335
16,2.215,0.0954362885357683
17,2.223,0.099557693708703
18,2.230,0.0975081905928143
19,2.238,0.088425419953548
20,2.246,0.0987849302387778
21,2.253,0.0837552407222606
22,2.261,0.086353517896502
23,2.268,0.0807929807542138
24,2.276,0.085138375338721
25,2.283,0.0880446379538746
26,2.291,0.101131219325
27,2.298,0.108097290024906
28,2.306,0.0777859229038525
29,2.313,0.0760892031111905
30,2.321,0.0743084872891889
31,2.328,0.0784186929915449
32,2.336,0.0709542458508901
33,2.343,0.0631930127399018
34,2.351,0.0871374808370059
35,2.359,0.0675608062655662
36,2.366,0.0730205481726468
37,2.374,0.0823945050469574
38,2.381,0.0816665394593467
39,2.389,0.129045899742227
40,2.396,0.208685335026843
41,2.404,0.238251937354417
42,2.411,0.199025791652777
43,2.419,0.0981577598863747
44,2.426,0.0772147499043425
45,2.434,0.0699630927046817
46,2.441,0.0896293630407503
47,2.449,0.0681039805886296
48,2.456,0.0951003044184095
49,2.464,0.0773771422277326
50,2.472,0.076240395964002
51,2.479,0.0624314487405551
52,2.487,0.0780939083447647
53,2.494,0.0691399316171526
54,2.502,0.0624146495346872
55,2.509,0.0571284994215753
56,2.517,0.0601803551542511
57,2.524,0.0840240280161476
58,2.532,0.0778027221097204
59,2.539,0.060034762036729
60,2.547,0.0671968234717608
61,2.554,0.0765707803460715
62,2.562,0.0620338675350139
63,2.570,0.0644417537094187
64,2.577,0.0424627926988635
65,2.585,0.0662336690019989
66,2.592,0.0649177312090103
67,2.600,0.0583940395969602
68,2.607,0.0619050736233597
69,2.615,0.0797178315786656
70,2.622,0.0655113031496775
71,2.630,0.0556893674522218
72,2.637,0.0647273402091736
73,2.645,0.0587748215966335
74,2.652,0.07584841449375
75,2.660,0.0573356896272799
76,2.667,0.0660096795904264
77,2.675,0.0729477516138857
78,2.683,0.0533430783659995
79,2.690,0.0419420173169574
80,2.698,0.0766771753165684
81,2.705,0.0517191551320986
82,2.713,0.0531134892191376
83,2.720,0.0580244570678655
84,2.728,0.0712230331447772
85,2.735,0.0837048431046568
86,2.743,0.0818457309886047
87,2.750,0.0826968907525803
88,2.758,0.0771979506984746
89,2.765,0.080636188166113
90,2.773,0.0992161098560549
91,2.781,0.103393512381883
92,2.788,0.0539366503066667
93,2.796,0.067717598853667
94,2.803,0.0868686935431188
95,2.811,0.118518397398318
96,2.818,0.076973961286902
97,2.826,0.0505656096625
98,2.833,0.0664184602665463
99,2.841,0.0720013963499917
100,2.848,0.056854112392399
101,2.856,0.0621850603878253
102,2.863,0.0712062339389092
103,2.871,0.0571732973038898
104,2.878,0.0826744918114231
105,2.886,0.073703715877943
106,2.894,0.0682327745002838
107,2.901,0.0747284674358874
108,2.909,0.0703774731160909
109,2.916,0.0622354580054292
110,2.924,0.0708366514098146
111,2.931,0.0672640202952326
112,2.939,0.0546478166884095
113,2.946,0.0681095803239189
114,2.954,0.547777305471216
115,2.961,10.5571641417367
116,2.969,50.3659623002301
117,2.976,100
118,2.984,26.9094327372956
119,2.992,0.489747248668061
120,2.999,0.210779636025046
121,3.007,0.1660545502693
122,3.014,0.127791559037421
123,3.022,0.119039172780224
124,3.029,0.101517601059963
125,3.037,0.107464519937214
126,3.044,0.125770054597979
127,3.052,0.0903013312754679
128,3.059,0.102671146529561
129,3.067,0.102559151823775
130,3.074,0.072006996085281
131,3.082,0.0728077582316529
132,3.089,0.0867175006903074
133,3.097,0.0932635912435147
134,3.105,0.053298280483685
135,3.112,0.0507280019858901
136,3.120,0.0870478850723769
137,3.127,0.093946758948811
138,3.135,0.0782339017269976
139,3.142,0.0769235636692982
140,3.150,0.0567085192748768
141,3.157,0.0695487122932725
142,3.165,0.0718782021736269
143,3.172,0.0599339668015214
144,3.180,0.0689831390290518
145,3.187,0.0564565311868577
146,3.195,0.0622354580054292
147,3.203,0.0503024221039023
148,3.210,0.04608022169576
149,3.218,0.0578060673915823
150,3.225,0.0550285986880828
151,3.233,0.0495128594281091
152,3.240,0.0680479832357365
153,3.248,0.0622354580054292
154,3.255,0.0584556366851426
155,3.263,0.0736421187897606
156,3.270,0.0590044107434953
157,3.278,0.0656288975907531
158,3.285,0.0623810511229513
159,3.293,0.0264419500361379
160,3.300,0.0403684917006603
161,3.308,0.0467353907246097
162,3.316,0.0725333712024765
163,3.323,0.0412084519940573
164,3.331,0.0450946682848408
165,3.338,0.0576380753329029
166,3.346,0.0400997044067733
167,3.353,0.0486784988700014
168,3.361,0.0438347278447453
169,3.368,0.0305857541502298
170,3.376,0.039898113936358
171,3.383,0.0270131230356479
172,3.391,0.0342031831471263
173,3.398,0.0304793591797329
174,3.406,0.0338000022062957
175,3.413,0.0281834677111144
176,3.421,0.0533150796895529
177,3.429,0.0264531495067165
178,3.436,0.031000134561639
179,3.444,0.039612527436603
180,3.451,0.0461754171956783
181,3.459,0.0331280339715781
182,3.466,0.0332400286773644
183,3.474,0.0395285314072633
184,3.481,0.0433083527275499
185,3.489,0.0814033519007489
186,3.496,0.071094239233123
187,3.504,0.0536902619539369
188,3.511,0.0314705123259413
189,3.519,0.0313809165613123
190,3.527,0.0484825081348754
191,3.534,0.0311401279438718
192,3.542,0.0257195841838165
193,3.549,0.0244316450672744
194,3.557,0.0451674648436019
195,3.564,0.0216205779520391
196,3.572,0.0171967870734815
197,3.579,0.0211222015112902
198,3.587,0.0253388021841431
199,3.594,0.0357095119399516
200,3.602,0.0341695847353904
201,3.609,0.0209038118350069
202,3.617,0.0322656747370238
203,3.624,0.0317840975021429
204,3.632,0.0408948668178558
205,3.640,0.0408500689355413
206,3.647,0.0235860850385881
207,3.655,0.0198230629241694
208,3.662,0.0167040103680219
209,3.670,0.0364542767334303
210,3.677,0.0078116307285922
211,3.685,0.0278530833290449
212,3.692,0.0349479479406049
213,3.700,0.037075847350544
214,3.707,0.0315265096788345
215,3.715,0.032019286384294
216,3.722,0.0377422158499723
217,3.730,0.0295386036511282
218,3.738,0.0223653427455177
219,3.745,0.00951395025654347
220,3.753,0.0277746870349945
221,3.760,0.0209710086584787
222,3.768,0.0306921491207268
223,3.775,0.0277354888879693
224,3.783,0.0147329035461836
225,3.790,0.0172191860146387
226,3.798,0.0355191209401149
227,3.805,0.033716006176956
228,3.813,0.0230653096566819
229,3.820,0.0264307505655593
230,3.828,0.040077305465616
231,3.835,0.0293146142395557
232,3.843,0.0270579209179624
233,3.851,0.0167432085150471
234,3.858,0.0254675960957974
235,3.866,0.019011101307219
236,3.873,0.0154664688690836
237,3.881,0.0153376749574294
238,3.888,0.0192406904540809
239,3.896,0.0264419500361379
240,3.903,0.0203438383060756
241,3.911,0.0236588815973491
242,3.918,0.03670066508616
243,3.926,0.0273267082118494
244,3.933,0.0158864490157821
245,3.941,0.0317840975021429
246,3.949,0.0294322086806312
247,3.956,0.0156904582806562
248,3.964,0.0276850912703655
249,3.971,0.0751708465237431
250,3.979,0.0579180620973685
251,3.986,0.0323440710310742
252,3.994,0.0273659063588746
253,4.001,0.031856894060904
254,4.009,0.0200526520710313
255,4.016,0.0260723675070432
256,4.024,0.0212565951582337
257,4.031,0.0266099420948173
258,4.039,0.0183895306901052
259,4.046,0.0193470854245778
260,4.054,0.0324784646780177
261,4.062,0.00575092814212487
262,4.069,0.0177679600729914
263,4.077,0.039254144378087
264,4.084,0.0266715391829997
265,4.092,0.0297009959745183
266,4.099,0.0325792599132254
267,4.107,0.03784301108518
268,4.114,0.0291858203279015
269,4.122,0.0437507318154056
270,4.129,0.0166592124857074
271,4.137,0.0321760789723948
272,4.144,0.040827669994384
273,4.152,0.0442659074620225
274,4.159,0.0169224000443051
275,4.167,0.0248012275963691
276,4.175,0.0238492725971858
277,4.182,0.0304401610327077
278,4.190,0.0210774036289757
279,4.197,0.0154048717809012
280,4.205,0.0287826393870709
281,4.212,0.029695396239229
282,4.220,0.0228189213039521
283,4.227,0.021066204158397
284,4.235,0.0282226658581396
285,4.242,0.0179471516022495
286,4.250,0.0253164032429859
287,4.257,0.0107514917554817
288,4.265,0.0283346605639258
289,4.273,0.0293818110630274
290,4.280,0.0212285964817871
291,4.288,0.0243420493026454
292,4.295,0.0334696178242262
293,4.303,0.0150912866046996
294,4.310,0.0162560315448768
295,4.318,0.0369582529094685
296,4.325,0.0207526189821955
297,4.333,0.0171575889264563
298,4.340,0.0205958263940947
299,4.348,0.0328480472071124
300,4.355,0.0294322086806312
301,4.363,0.0243980466555385
302,4.370,0.0338783985003461
303,4.378,0.0174095770144754
304,4.386,0.0306025533560977
305,4.393,0.0348135542936614
306,4.401,0.0263355550656409
307,4.408,0.0355639188224294
308,4.416,0.0729477516138857
309,4.423,0.0999888733259801
310,4.431,0.0493616665752976
311,4.438,0.0393101417309801
312,4.446,0.0358271063810272
313,4.453,0.0296114002098893
314,4.461,0.0281106711523533
315,4.468,0.0369974510564937
316,4.476,0.0142793249877492
317,4.484,0.01459850989924
318,4.491,0.0429835680807697
319,4.499,0.0252660056253821
320,4.506,0.0269011283298616
321,4.514,0.0224997363924613
322,4.521,0.0351383389404416
323,4.529,0.0148057001049446
324,4.536,0.0246164363318217
325,4.544,0.0276906910056548
326,4.551,0.0373166359679845
327,4.559,0.0192126917776343
328,4.566,0.0216037787461711
329,4.574,0.0251708101254637
330,4.581,0.0344215728234095
331,4.589,0.0220741565104734
332,4.597,0.0269515259474654
333,4.604,0.0313473181495764
334,4.612,0.0282562642698754
335,4.619,0.0236196834503239
336,4.627,0.0188207103073823
337,4.634,0.0186751171898602
338,4.642,0.0133217702532766
339,4.649,0.0254899950369546
340,4.657,0.0352727325873851
341,4.664,0.00610371146535161
342,4.672,0.0309441372087459
343,4.679,0.0146433077815545
344,4.687,0.0111938708433375
345,4.695,0.0195206772185465
346,4.702,0.0153376749574294
347,4.710,0.0309609364146138
348,4.717,0.016849603485544
349,4.725,0.0175719693378655
350,4.732,0.0124202128716971
351,4.740,0.0382517917612999
352,4.747,0.0207750179233527
353,4.755,0.00463098108426218
354,4.762,0.0273771058294532
355,4.770,0.0231157072742857
356,4.777,0.0234404919210659
357,4.785,0.00467577896657669
358,4.792,0.0231157072742857
359,4.800,0.0252660056253821
360,4.808,0.0194590801303641
361,4.815,0.0279314796230953
362,4.823,0.0207470192469062
363,4.830,0.00987233331505953
364,4.838,0.0363086836159081
365,4.845,0.0269347267415975
366,4.853,0.0258595775660493
367,4.860,0.0116922472840864
368,4.868,0.03670066508616
369,4.875,0.0558349605697439
370,4.883,0.0354183257049073
371,4.890,0.02267332818643
372,4.898,0.0454754502845141
373,4.906,0.0315825070317276
374,4.913,0.02153098218741
375,4.921,0.0289394319751717
376,4.928,0.022566933215933
377,4.936,0.0324560657368605
378,4.943,0.0278810820054914
379,4.951,0.0235860850385881
380,4.958,0.0230653096566819
381,4.966,0.0217885700107185
382,4.973,0.0234908895386697
383,4.981,0.0110146793140795
384,4.988,0.0245156410966141
385,4.996,0.0220741565104734
386,5.003,0.0304905586503115
387,5.011,0.0207134208351703
388,5.019,0.0248852236257088
389,5.026,0.0238268736560285
390,5.034,0.0155392654278447
391,5.041,0.022852519715688
392,5.049,0.0301265758565061
393,5.056,0.0286202470636808
394,5.064,0.0409732631119062
395,5.071,0.00610371146535161
396,5.079,0.014419318369982
397,5.086,0.0258763767719172
398,5.094,0.0417236276406742
399,5.101,0.0189943021013511
400,5.109,0.02210215518692
401,5.116,0.0145425125463469
402,5.124,0.0235580863621415
403,5.132,0.020601426129384
404,5.139,0.0174823735732364
405,5.147,0.0210382054819505
406,5.154,0.0386157745551052
407,5.162,0.0106954944025886
408,5.169,0.0308097435618023
409,5.177,0.0281274703582212
410,5.184,0.0145313130757683
411,5.192,0.0128233938125277
412,5.199,0.0147105046050263
413,5.207,0.0165584172504997
414,5.214,0.0173199812498464
415,5.222,0.0217549715989826
416,5.230,0.0312185242379222
417,5.237,0.0209710086584787
418,5.245,0.0302273710917138
419,5.252,0.0209374102467428
420,5.260,0.0207358197763275
421,5.267,0.00161272376332226
422,5.275,0.00263747532126661
423,5.282,0.0206686229528558
424,5.290,0.016866402691412
425,5.297,0.024818026802237
426,5.305,0.0162392323390089
427,5.312,0.0149344940165988
428,5.320,0.0183391330725014
429,5.327,0.0265427452713455
430,5.335,0.0188375095132503
431,5.343,0.0157184569571027
432,5.350,0.0390525539076717
433,5.358,0.0134225654884842
434,5.365,0.0212061975406299
435,5.373,0.0205790271882268
436,5.380,0.0317560988256963
437,5.388,0.0183447328077907
438,5.395,0.0314257144436268
439,5.403,0.0250532156843882
440,5.410,0.0221693520103918
441,5.418,0.0203382385707863
442,5.425,0.00845000055157393
443,5.433,0.0325176628250429
444,5.441,0.00986673357977022
445,5.448,0.00928996084497094
446,5.456,0.0290066287986434
447,5.463,0.0269067280651509
448,5.471,0.038201394143696
449,5.478,0.0349535476758943
450,5.486,0.0175887685437334
451,5.493,0.0450330711966584
452,5.501,0.0240508630676011
453,5.508,0.0242188551262805
454,5.516,0.0204278343354153
455,5.523,0.0286090475931022
456,5.531,0.0386213742903945
457,5.538,0.0278530833290449
458,5.546,0.0113562631667276
459,5.554,0.0260723675070432
460,5.561,0.00757084211115172
461,5.569,0.00465897976070875
462,5.576,0.0215645805991459
463,5.584,0.0134785628413774
464,5.591,0.0218893652459261
465,5.599,0.0161496365743799
466,5.606,0.02267332818643
467,5.614,0.0127897954007918
468,5.621,0.0458954304312127
469,5.629,0.0304849589150222
470,5.636,0.020976608393768
471,5.644,0.0533486781012888
472,5.652,0.0164520222800028
473,5.659,0.0312913207966833
474,5.667,0.0328648464129804
475,5.674,0.0305129575914687
476,5.682,0.0388341642313885
477,5.689,0.0174487751615006
478,5.697,0.0272987095354028
479,5.704,0.0230989080684178
480,5.712,0.00626050405345238
481,5.719,0.0366166690568203
482,5.727,0.0341191871177866
483,5.734,0.0318904924726398
484,5.742,0.0313473181495764
485,5.749,0.0146937053991584
486,5.757,0.0268955285945723
487,5.765,0.0209150113055856
488,5.772,0.0213349914522841
489,5.780,0.0256971852426592
490,5.787,0.0236140837150346
491,5.795,0.0162504318095875
492,5.802,0.0171015915735631
493,5.810,0.0248908233609981
494,5.817,0.0223205448632032
495,5.825,0.0123530160482254
496,5.832,0.0195486758949931
497,5.840,0.0156680593394989
498,5.847,0.0132433739592262
499,5.855,0.0214637853639383
500,5.862,0.032304872884049
501,5.870,0.0166144146033929
502,5.878,0.0189663034249045
503,5.885,0.0188991066014327
504,5.893,0.0350711421169698
505,5.900,0.0359335013515241
506,5.908,0.023798874979582
507,5.915,0.0181375426020861
508,5.923,0.0219901604811337
509,5.930,0.00978833728571983
510,5.938,0.0288442364752533
511,5.945,0.0125210081069048
512,5.953,0.0241516583028087
513,5.960,0.0360398963220211
514,5.968,0.0191342954835839
515,5.976,0.0134281652237735
516,5.983,0.0223485435396498
517,5.991,0.0110762764022619
518,5.998,0.0351775370874668
519,6.006,0.0237764760384247
520,6.013,0.0287210422988884
521,6.021,0.0135345601942705
522,6.028,0.0231941035683361
523,6.036,0.028945031710461
524,6.043,0.0189719031601938
525,6.051,0.0218109689518757
526,6.058,0.0224493387748574
527,6.066,0.033984793470843
528,6.073,0.0346791606467179
529,6.081,0.0298633882979084
530,6.089,0.0316665030610673
531,6.096,0.0181487420726647
532,6.104,0.0385709766727907
533,6.111,0.0319352903549543
534,6.119,0.0253836000664577
535,6.126,0.0312017250320543
536,6.134,0.0270019235650692
537,6.141,0.0252548061548034
538,6.149,0.0217045739813788
539,6.156,0.0421436077873727
540,6.164,0.0326240577955399
541,6.171,0.0302049721505565
542,6.179,0.00749804555239065
543,6.187,0.0215981790108818
544,6.194,0.0198958594829305
545,6.202,0.0264139513596913
546,6.209,0.019279888601106
547,6.217,0.0227013268628765
548,6.224,0.033805601941585
549,6.232,0.0181375426020861
550,6.239,0.018277535984319
551,6.247,0.0263355550656409
552,6.254,0.0220293586281589
553,6.262,0.0274107042411891
554,6.269,0.0346791606467179
555,6.277,0.0152032813104859
556,6.284,0.0255795908015836
557,6.292,0.0204726322177298
558,6.300,0.0115970517841681
559,6.307,0.0154832680749516
560,6.315,0.0302329708270031
561,6.322,0.0160880394861974
562,6.330,0.022281346716178
563,6.337,0.0320248861195834
564,6.345,0.0141897292231202
565,6.352,0.00773883416983112
566,6.360,0.0107626912260604
567,6.367,0.0434931439920972
568,6.375,0.0413540451115795
569,6.382,0.019671870071358
570,6.390,0
571,6.398,0.027444302652925
572,6.405,0.0134505641649308
573,6.413,0.0341695847353904
574,6.420,0.0243924469202492
575,6.428,0.0117090464899543
576,6.435,0.021262194893523
577,6.443,0.0142961241936171
578,6.450,0.0263635537420875
579,6.458,0.0233508961564369
580,6.465,0.0246332355376897
581,6.473,0.0155056670161088
582,6.480,0.0360342965867318
583,6.488,0.0329880405893453
584,6.495,0.0275842960351578
585,6.503,0.0171127910441418
586,6.511,0.0137137517235285
587,6.518,0.0151248850164355
588,6.526,0.0140945337232018
589,6.533,0.0176559653672052
590,6.541,0.0269347267415975
591,6.548,0.0146713064580011
592,6.556,0.0250924138314134
593,6.563,0.0227349252746124
594,6.571,0.0194646798656534
595,6.578,0.0337104064416667
596,6.586,0.0213909888051772
597,6.593,0.0313193194731299
598,6.601,0.0127729961949239
599,6.609,0.0159536458392539
600,6.616,0.0220909557163414
601,6.624,0.0146265085756866
602,6.631,0.0381565962613815
603,6.639,0.0195766745714397
604,6.646,0.033895197706214
605,6.654,0.0133889670767483
606,6.661,0.0339735940002644
607,6.669,0.0208086163350886
608,6.676,0.0178015584847273
609,6.684,0.0245660387142179
610,6.691,0.00705006672924558
611,6.699,0.0347239585290324
612,6.706,0.00833240611049834
613,6.714,0.0182551370431617
614,6.722,0.0217717708048505
615,6.729,0.0299977819448519
616,6.737,0.0194086825127603
617,6.744,0.0180927447197716
618,6.752,0.0308657409146955
619,6.759,0.0126834004302949
620,6.767,0.0359279016162348
621,6.774,0.0246108365965324
622,6.782,0.0239332686265255
623,6.789,0.0190335002483763
624,6.797,0.013758549605843
625,6.804,0.0241628577733873
626,6.812,0.0302273710917138
627,6.819,0.0263579540067982
628,6.827,0.0132713726356728
629,6.835,0.00803562014016473
630,6.842,0.0171743881323242
631,6.850,0.0112834666079665
632,6.857,0.0232165025094934
633,6.865,0.0228693189215559
634,6.872,0.0273771058294532
635,6.880,0.0221805514809704
636,6.887,0.025478795566376
637,6.895,0.0253556013900111
638,6.902,0.00803002040487542
639,6.910,0.025389199801747
640,6.917,0.0138425456351827
641,6.925,0.0212397959523657
642,6.933,0.0244540440084316
643,6.940,0.013685753047082
644,6.948,0.0153040765456935
645,6.955,0.0181991396902686
646,6.963,0.0247060320964507
647,6.970,0.0237484773619781
648,6.978,0.0127673964596346
649,6.985,0.0118602393427658
650,6.993,0.0171911873381921
651,7.000,0.0222645475103101
652,7.008,0.0286874438871526
653,7.015,0.0280210753877243
654,7.023,0.053387876248314
655,7.030,0.0636913891806506
656,7.038,0.0529902950427727
657,7.046,0.0455426471079859
658,7.053,0.0545470214532019
659,7.061,0.0355583190871401
660,7.068,0.0403852909065283
661,7.076,0.0291970197984801
662,7.083,0.044758684167482
663,7.091,0.0282954624169006
664,7.098,0.0275394981528433
665,7.106,0.0378542105557586
666,7.113,0.0443387040207835
667,7.121,0.0242188551262805
668,7.128,0.0258931759777852
669,7.136,0.0491040787519892
670,7.144,0.0340687895001827
671,7.151,0.0302833684446069
672,7.159,0.0411636541117428
673,7.166,0.0539758484536919
674,7.174,0.0785866850502243
675,7.181,0.0429331704631659
676,7.189,0.0359223018809455
677,7.196,0.0362022886454112
678,7.204,0.0256019897427409
679,7.211,0.0303897634151038
680,7.219,0.0421828059343979
681,7.226,0.081296956930252
682,7.234,0.0930787999789674
683,7.241,0.111137946287003
684,7.249,0.0807873810189245
685,7.257,0.0690503358525236
686,7.264,0.057229294656783
687,7.272,0.0423787966695238
688,7.279,0.0359559002926814
689,7.287,0.0302161716211351
690,7.294,0.0506272067506825
691,7.302,0.0378710097616266
692,7.309,0.0308657409146955
693,7.317,0.0509015937798588
694,7.324,0.0426027860810964
695,7.332,0.0272035140354845
