#"+EI TIC Scan MEOH-ASA.d "
#Point,X(Minutes),Y(Counts)
0,2.095,0.190157626848285
1,2.102,0.155275397024206
2,2.110,0.185113522209557
3,2.117,0.147825817456298
4,2.125,0.144811865417374
5,2.132,0.152915415710708
6,2.140,0.132625263116591
7,2.147,0.127876866979795
8,2.155,0.112926527526339
9,2.162,0.125966135121157
10,2.170,0.113586184953726
11,2.178,0.120848103356945
12,2.185,0.130760024873634
13,2.193,0.137760354986683
14,2.200,0.121672675141179
15,2.208,0.0845214512349668
16,2.215,0.0960085891946407
17,2.223,0.0744503020633914
18,2.230,0.102081986888171
19,2.238,0.0883827218659661
20,2.245,0.094439059453616
21,2.253,0.093227791936086
22,2.260,0.0894745686423312
23,2.268,0.0814051385607583
24,2.275,0.0839414076350229
25,2.283,0.0678878480012806
26,2.291,0.077737215796407
27,2.298,0.0514589660381629
28,2.306,0.0686157458521907
29,2.313,0.0549790345515481
30,2.321,0.0486213017600058
31,2.328,0.0752748738476254
32,2.336,0.0612855870254483
33,2.343,0.05575242601814
34,2.351,0.0855166240780079
35,2.358,0.0538018872457795
36,2.366,0.0515215197597255
37,2.373,0.0643620927859352
38,2.381,0.0716638181028764
39,2.389,0.07829451258851
40,2.396,0.168178523771978
41,2.404,0.272080255287424
42,2.411,0.23633933346735
43,2.419,0.0964635253514595
44,2.426,0.0828325007527772
45,2.434,0.0598525381314692
46,2.441,0.0727897850910029
47,2.449,0.0645497539506229
48,2.456,0.0600288258922364
49,2.464,0.0637194954644287
50,2.471,0.07393281218501
51,2.479,0.0482118592188689
52,2.486,0.0804327125255582
53,2.494,0.0480526315639824
54,2.502,0.0588289317786269
55,2.509,0.0415015509057921
56,2.517,0.0602790407784867
57,2.524,0.0446917907054837
58,2.532,0.0480469448620221
59,2.539,0.0582830083904444
60,2.547,0.0468584241523331
61,2.554,0.0407850264588025
62,2.562,0.0615585487195395
63,2.569,0.044942005591734
64,2.577,0.099505910900185
65,2.584,0.150942130130507
66,2.592,0.0743991217457493
67,2.600,0.0746777701418008
68,2.607,0.0674897788640642
69,2.615,0.0444302024153129
70,2.622,0.0589199190099907
71,2.630,0.0476659358306864
72,2.637,0.0516636873087313
73,2.645,0.0538871877751831
74,2.652,0.0586753908257006
75,2.660,0.0496164746030469
76,2.667,0.0389141015138854
77,2.675,0.0447429710231258
78,2.682,0.0484734475090397
79,2.690,0.0534379383203245
80,2.697,0.0544160510574849
81,2.705,0.0566964185435389
82,2.713,0.055923027076947
83,2.720,0.0518968420891009
84,2.728,0.0661704640092898
85,2.735,0.0913739270970495
86,2.743,0.0596876237746223
87,2.750,0.0617462098842273
88,2.758,0.0823036374704754
89,2.765,0.0716581314009162
90,2.773,0.0910270382774752
91,2.780,0.112187256271508
92,2.788,0.0566224914180559
93,2.795,0.118436941725806
94,2.803,0.123191024564562
95,2.811,0.131686957293153
96,2.818,0.114461937055602
97,2.826,0.0530057489713467
98,2.833,0.0614675614881758
99,2.841,0.0728352787066847
100,2.848,0.0751156461927388
101,2.856,0.0468299906425319
102,2.863,0.0386752600315555
103,2.871,0.0551610090142756
104,2.878,0.0290249268050374
105,2.886,0.0695028713579873
106,2.893,0.0625366614566999
107,2.901,0.0799493428589382
108,2.908,0.0712088819460577
109,2.916,0.0875126564660502
110,2.924,0.0610410588411582
111,2.931,0.044578056666279
112,2.939,0.0636683151467866
113,2.946,0.0638104826957924
114,2.954,0.18084280903742
115,2.961,4.79936604646547
116,2.969,37.0969386493002
117,2.976,94.72050002033
118,2.984,100
119,2.991,3.22705550818217
120,2.999,0.195252911804655
121,3.006,0.12290100276459
122,3.014,0.142855639943053
123,3.022,0.104362354374225
124,3.029,0.0824514917214415
125,3.037,0.100990140111806
126,3.044,0.11320517592239
127,3.052,0.0966739333239882
128,3.059,0.0618087636057899
129,3.067,0.0891219931207966
130,3.074,0.0572423419317215
131,3.082,0.0616438492489431
132,3.089,0.0724940765890707
133,3.097,0.0792953721335112
134,3.104,0.0561050015396745
135,3.112,0.0659031890171588
136,3.119,0.0772652195337075
137,3.127,0.087967592622869
138,3.135,0.0963156711004934
139,3.142,0.0591132668766387
140,3.150,0.0400286950980913
141,3.157,0.0548653005123434
142,3.165,0.0600572594020376
143,3.172,0.0607908439549079
144,3.180,0.0699464341108856
145,3.187,0.0643962129976966
146,3.195,0.0496392214108878
147,3.202,0.0454765555759961
148,3.210,0.0570148738533121
149,3.217,0.0578565057434268
150,3.225,0.0428492992703677
151,3.232,0.0423773030076682
152,3.240,0.048843083136455
153,3.248,0.0502192650108317
154,3.255,0.0446064901760802
155,3.263,0.071896972883246
156,3.270,0.0628437433625526
157,3.278,0.0537962005438193
158,3.285,0.0382316972786572
159,3.293,0.0537734537359784
160,3.300,0.0419394269567302
161,3.308,0.0411432886822973
162,3.315,0.0578451323395063
163,3.323,0.0521527436773115
164,3.330,0.0356271877808698
165,3.338,0.0504694798970821
166,3.346,0.0451126066505411
167,3.353,0.0377824478237987
168,3.361,0.0468186172386114
169,3.368,0.0287121581972245
170,3.376,0.0376004733610712
171,3.383,0.0211090376763908
172,3.391,0.0260166614680733
173,3.398,0.026033721573954
174,3.406,0.034808302698596
175,3.413,0.0294173092402936
176,3.421,0.0299063656088738
177,3.428,0.0391017626785731
178,3.436,0.030566023036261
179,3.443,0.0433440423409081
180,3.451,0.0231562503820753
181,3.459,0.0341486452712088
182,3.466,0.0222861849821594
183,3.474,0.0338074431535947
184,3.481,0.0402106695608188
185,3.489,0.0888490314267054
186,3.496,0.0801824976393078
187,3.504,0.0407565929490014
188,3.511,0.0250783556446346
189,3.519,0.0344727872829421
190,3.526,0.0245267455544918
191,3.534,0.0335856617771455
192,3.541,0.0197954095235766
193,3.549,0.0293263220089298
194,3.557,0.0409670009215301
195,3.564,0.025476424781851
196,3.572,0.0148991591358146
197,3.579,0.0325506820203828
198,3.587,0.0369123824238828
199,3.594,0.0447088508113644
200,3.602,0.0269322204836711
201,3.609,0.0292467081814865
202,3.617,0.0232756711232402
203,3.624,0.0142679352182286
204,3.632,0.0369351292317237
205,3.639,0.0452035938819048
206,3.647,0.0283880161854911
207,3.654,0.0459144316269341
208,3.662,0.0306285767578236
209,3.670,0.0402504764745405
210,3.677,0.0418029461096845
211,3.685,0.0330681718987642
212,3.692,0.02326998442128
213,3.700,0.0439809529604544
214,3.707,0.0350243973730849
215,3.715,0.0287064714952643
216,3.722,0.0376004733610712
217,3.730,0.039875154145165
218,3.737,0.0189594643354222
219,3.745,0.0389368483217263
220,3.752,0.0292978884991287
221,3.760,0.0193404733667579
222,3.768,0.0177993771355343
223,3.775,0.035439526616182
224,3.783,0.0473986608385554
225,3.790,0.0221042105194319
226,3.798,0.0267900529346652
227,3.805,0.0174979819316419
228,3.813,0.0118226533753277
229,3.820,0.0298324384833907
230,3.828,0.024384578005486
231,3.835,0.013306882586949
232,3.843,0.0222918716841196
233,3.850,0.0366678542395927
234,3.858,0.0260735284876756
235,3.865,0.0342396325025725
236,3.873,0.0181917595707905
237,3.881,0.0257266396681013
238,3.888,0.0149389660495363
239,3.896,0.0336311553928274
240,3.903,0.00110890688224575
241,3.911,0.040603051996075
242,3.918,0.0325279352125419
243,3.926,0.0295310432794983
244,3.933,0.0201536717470714
245,3.941,0.0285586172442982
246,3.948,0.0391415695922947
247,3.956,0.0189935845471836
248,3.963,0.0340007910202427
249,3.971,0.0674670320562233
250,3.978,0.0862445219289179
251,3.986,0.0400116349922106
252,3.994,0.0154507692259574
253,4.001,0.0430085269252543
254,4.009,0.0129998006810963
255,4.016,0.0376630270826337
256,4.024,0.0332899532752133
257,4.031,0.0199887573902246
258,4.039,0.0183623606295975
259,4.046,0.0273757832365694
260,4.054,0.00545923388182522
261,4.061,0.0136253378967221
262,4.069,0.0285529305423379
263,4.076,0.0246404795936965
264,4.084,0.0406542323137171
265,4.092,0.0179699781943413
266,4.099,0.029451429452055
267,4.107,0.0350812643926872
268,4.114,0.0213819993704821
269,4.122,0.0254593646759703
270,4.129,0.0240604359937526
271,4.137,0.0298608719931919
272,4.144,0.0234747056918484
273,4.152,0.0207507754528961
274,4.159,0.0386923201374362
275,4.167,0.0338358766633959
276,4.174,0.0380156026041683
277,4.182,0.0514248458264015
278,4.189,0.0324653814909793
279,4.197,0.0204209467392024
280,4.205,0.0319933852282799
281,4.212,0.0321639862870869
282,4.220,0.0271028215424781
283,4.227,0.01624122079843
284,4.235,0.0325506820203828
285,4.242,0.0344216069653
286,4.250,0.0367645281729167
287,4.257,0.0310607661068014
288,4.265,0.0217743818057383
289,4.272,0.0276032513149787
290,4.280,0.0257835066877037
291,4.287,0.00354281532122615
292,4.295,0.0232301775075583
293,4.303,0.010713746493082
294,4.310,0.0321128059694448
295,4.318,0.0231846838918765
296,4.325,0.0376175334669519
297,4.333,0.00649990034054815
298,4.340,0.0165539894062429
299,4.348,0.0248850077779866
300,4.355,0.0142736219201888
301,4.363,0.0225875801860518
302,4.370,0.0211204110803113
303,4.378,0.0325108751066612
304,4.385,0.0188400435942572
305,4.393,0.00824003114037993
306,4.400,0.0112994767949861
307,4.408,0.0257152662641809
308,4.416,0.0610865524568401
309,4.423,0.138994369312054
310,4.431,0.0915104079440952
311,4.438,0.0403812706196259
312,4.446,0.0266990657033014
313,4.453,0.0151778075318661
314,4.461,0.0218710557390623
315,4.468,0.0281946683188431
316,4.476,0.0121126751752997
317,4.483,0.0207337153470153
318,4.491,0.0220644036057102
319,4.498,0.0250385487309129
320,4.506,0.02060292120193
321,4.514,0.0189992712491438
322,4.521,0.0207394020489756
323,4.529,0.0254423045700896
324,4.536,0.0291557209501228
325,4.544,0.0307025038833066
326,4.551,0.0174183681041986
327,4.559,0.0158488383631738
328,4.566,0.0304124820833346
329,4.574,0.0219165493547441
330,4.581,0.0378450015453613
331,4.589,0.0290135534011169
332,4.596,0.024822454056424
333,4.604,0.0215639738332096
334,4.611,0.033062485196804
335,4.619,0.025647025840658
336,4.627,0.0260394082759142
337,4.634,0.0662841980484945
338,4.642,0.13842001241407
339,4.649,0.0926136281243807
340,4.657,0.0811662970784284
341,4.664,0.0377142074002759
342,4.672,0.0468641108542933
343,4.679,0.0455504827014791
344,4.687,0.0190106446530643
345,4.694,0.0271596885620804
346,4.702,0.0465797757562816
347,4.709,0.0338074431535947
348,4.717,0.0383909249335438
349,4.725,0.0585787168923766
350,4.732,0.0426161444899981
351,4.740,0.0334093740163783
352,4.747,0.0312882341852108
353,4.755,0.0349334101417211
354,4.762,0.0271198816483588
355,4.770,0.0522266708027946
356,4.777,0.0683370974561392
357,4.785,0.0762643599887062
358,4.792,0.0545127249908089
359,4.800,0.0545354717986498
360,4.807,0.0326302958478261
361,4.815,0.0263578635856874
362,4.822,0.0362697851023763
363,4.830,0.0423374960939466
364,4.838,0.0490762379168246
365,4.845,0.058248888178683
366,4.853,0.0275065773816548
367,4.860,0.0290363002089579
368,4.868,0.0309129118558353
369,4.875,0.0443676486937503
370,4.883,0.033790383047714
371,4.890,0.0161559202690265
372,4.898,0.0477057427444081
373,4.905,0.0752862472515459
374,4.913,0.0537677670340181
375,4.920,0.0205517408842878
376,4.928,0.0266763188954605
377,4.935,0.029622030510862
378,4.943,0.0203527063156796
379,4.951,0.0379303020747648
380,4.958,0.030446602295096
381,4.966,0.0457381438661669
382,4.973,0.0203356462097989
383,4.981,0.0294116225383333
384,4.988,0.0195508813392866
385,4.996,0.0260166614680733
386,5.003,0.0218710557390623
387,5.011,0.0250612955387539
388,5.018,0.0347571223809539
389,5.026,0.0232642977193197
390,5.033,0.0249703083073901
391,5.041,0.0118567735870891
392,5.049,0.0317261102361488
393,5.056,0.0358319090514382
394,5.064,0.02326998442128
395,5.071,0.0234064652683256
396,5.079,0.0306513235656645
397,5.086,0.0205972344999697
398,5.094,0.0217061413822155
399,5.101,0.0196020616569287
400,5.109,0.0166108564258453
401,5.116,0.0363664590357003
402,5.124,0.0233723450565642
403,5.131,0.0333468202948157
404,5.139,0.0211317844842318
405,5.146,0.0224965929546881
406,5.154,0.013551410771239
407,5.162,0.012266216128226
408,5.169,0.0212455185234365
409,5.177,0.0288713858521111
410,5.184,0.0198863967549404
411,5.192,0.0400514419059323
412,5.199,0.0341770787810099
413,5.207,0.0170999127944254
414,5.214,0.0244016381113667
415,5.222,0.0476602491287262
416,5.229,0.0367986483846781
417,5.237,0.0276259981228197
418,5.244,0.0091214699442163
419,5.252,0.0337846963457538
420,5.260,0.0179756648963016
421,5.267,0.0263408034798067
422,5.275,0.0223373652998015
423,5.282,0.0284733167148946
424,5.290,0.0165198691944815
425,5.297,0.0188627904020982
426,5.305,0.0183225537158759
427,5.312,0.031487268753819
428,5.320,0.0318455309773138
429,5.327,0.0255674120132148
430,5.335,0.0261815758249201
431,5.342,0.0307536842009487
432,5.350,0.020022877601986
433,5.357,0.0257209529661411
434,5.365,0.0194314605981216
435,5.373,0.0157919713435715
436,5.380,0.0268810401660289
437,5.388,0.032772463396832
438,5.395,0.0376289068708723
439,5.403,0.0112255496695031
440,5.410,0.0330966054085654
441,5.418,0.033864310173197
442,5.425,0.0232870445271607
443,5.433,0.00755762690515178
444,5.440,0.0190220180569847
445,5.448,0.0212910121391183
446,5.455,0
447,5.463,0.0346604484476299
448,5.471,0.0280183805580759
449,5.478,0.0335174213536227
450,5.486,0.0598695982373499
451,5.493,0.0399035876549662
452,5.501,0.0266308252797786
453,5.508,0.0269265337817108
454,5.516,0.0433269822350274
455,5.523,0.0343078729260953
456,5.531,0.0507936219088154
457,5.538,0.0520845032537887
458,5.546,0.0250840423465948
459,5.553,0.0249134412877878
460,5.561,0.0342566926084532
461,5.568,0.0311631267420856
462,5.576,0.0164231952611575
463,5.584,0.0265114045386137
464,5.591,0.0266763188954605
465,5.599,0.0168553846101353
466,5.606,0.00305375895264598
467,5.614,0.0238784615310251
468,5.621,0.0364688196709845
469,5.629,0.0286382310717414
470,5.636,0.0246177327858556
471,5.644,0.0338358766633959
472,5.651,0.0337221426241912
473,5.659,0.0339098037888789
474,5.666,0.0338927436829982
475,5.674,0.0161786670768674
476,5.681,0.0552235627358382
477,5.689,0.0253513173387258
478,5.697,0.0334946745457818
479,5.704,0.00880870133640339
480,5.712,0.0409840610274108
481,5.719,0.0658406352955962
482,5.727,0.0466309560739237
483,5.734,0.0497813889598937
484,5.742,0.0499178698069393
485,5.749,0.0325904889341045
486,5.757,0.0206313547117311
487,5.764,0.0220757770096307
488,5.772,0.033500361247742
489,5.779,0.0328805107340765
490,5.787,0.0374810526199062
491,5.795,0.0288372656403497
492,5.802,0.0400343818000516
493,5.810,0.0329203176477981
494,5.817,0.0115440049792762
495,5.825,0.0302532544284481
496,5.832,0.0257266396681013
497,5.840,0.0297869448677088
498,5.847,0.0888319713208247
499,5.855,0.135713142280999
500,5.862,0.0815302460038834
501,5.870,0.042638891297839
502,5.877,0.0230823232565922
503,5.885,0.0307081905852668
504,5.892,0.0315100155616599
505,5.900,0.0415015509057921
506,5.908,0.0223544254056822
507,5.915,0.01890828401778
508,5.923,0.0182941202060747
509,5.930,0.0214900467077265
510,5.938,0.0350585175848463
511,5.945,0.00943992525398943
512,5.953,0.0329146309458379
513,5.960,0.0246234194878158
514,5.968,0.0159966926141399
515,5.975,0.0196759887824117
516,5.983,0.016144546865106
517,5.990,0.0182656866962735
518,5.998,0.0422863157763045
519,6.006,0.0272279289856033
520,6.013,0.0345694612162661
521,6.021,0.0321753596910074
522,6.028,0.0349845904593633
523,6.036,0.0357409218200745
524,6.043,0.0408760136901663
525,6.051,0.0300712799657206
526,6.058,0.0276373715267402
527,6.066,0.0165824229160441
528,6.073,0.0501339644814282
529,6.081,0.0462328869367073
530,6.088,0.0277624789698653
531,6.096,0.023923955146707
532,6.103,0.0356158143769493
533,6.111,0.0329487511575993
534,6.119,0.0249930551152311
535,6.126,0.0322890937302121
536,6.134,0.0630200311233198
537,6.141,0.109650987197244
538,6.149,0.0708619931264833
539,6.156,0.0564575770612091
540,6.164,0.0574300030964092
541,6.171,0.053739333524217
542,6.179,0.0401765493490574
543,6.186,0.0287860853227075
544,6.194,0.0377881345257589
545,6.201,0.0448112114466486
546,6.209,0.0515727000773676
547,6.217,0.043924085940852
548,6.224,0.0500202304422235
549,6.232,0.0568840797082267
550,6.239,0.052164117081232
551,6.247,0.024265157264321
552,6.254,0.0243788913035257
553,6.262,0.0481606789012268
554,6.269,0.0318853378910354
555,6.277,0.0276146247188992
556,6.284,0.0309356586636762
557,6.292,0.0189253441236607
558,6.299,0.0401594892431767
559,6.307,0.0278989598169109
560,6.314,0.0344955340907831
561,6.322,0.0140575272456999
562,6.330,0.0308787916440739
563,6.337,0.0294343693461743
564,6.345,0.0187035627472116
565,6.352,0.0314758953498985
566,6.360,0.0425024104507934
567,6.367,0.0310664528087616
568,6.375,0.0572935222493636
569,6.382,0.0655051198799423
570,6.390,0.0430767673487771
571,6.397,0.0250044285191515
572,6.405,0.0379018685649636
573,6.412,0.0370488632709284
574,6.420,0.0530171223752672
575,6.427,0.0387491871570386
576,6.435,0.0210862908685499
577,6.443,0.0358830893690803
578,6.450,0.0426559514037197
579,6.458,0.027125568350319
580,6.465,0.037668713784594
581,6.473,0.0448055247446884
582,6.480,0.046807243834691
583,6.488,0.0377540143139975
584,6.495,0.0471370725483846
585,6.503,0.0322720336243313
586,6.510,0.0351665649220908
587,6.518,0.033767636239873
588,6.525,0.0384136717413847
589,6.533,0.0407907131607628
590,6.541,0.0416095982430366
591,6.548,0.0654653129662207
592,6.556,0.302049174617861
593,6.563,0.629193764986237
594,6.571,0.35634011823222
595,6.578,0.285142609690083
596,6.586,0.551553223123154
597,6.593,0.483545954380708
598,6.601,0.28093445023951
599,6.608,0.453889803658085
600,6.616,0.997038081284012
601,6.623,0.884361768643923
602,6.631,0.442305991765087
603,6.638,0.291494655779665
604,6.646,0.224903375825318
605,6.654,0.219472575453294
606,6.661,0.18155933348441
607,6.669,0.153398785377328
608,6.676,0.13381378382628
609,6.684,0.114007000898783
610,6.691,0.135298013037902
611,6.699,0.0934154531007738
612,6.706,0.113881893455658
613,6.714,0.0844134038977224
614,6.721,0.0804554593333991
615,6.729,0.0842484895408756
616,6.736,0.0870804671170724
617,6.744,0.060017452488316
618,6.752,0.0789427966119767
619,6.759,0.0845441980428078
620,6.767,0.067216817169973
621,6.774,0.0775495546317192
622,6.782,0.069861133581482
623,6.789,0.0541430893633936
624,6.797,0.0576404110689379
625,6.804,0.0601709934412423
626,6.812,0.0665344129347448
627,6.819,0.0575266770297332
628,6.827,0.0548141201947013
629,6.834,0.0587151977394222
630,6.842,0.058880112096269
631,6.849,0.0729035191302076
632,6.857,0.0711178947146939
633,6.865,0.0686555527659123
634,6.872,0.1255737526859
635,6.880,0.278233266808398
636,6.887,0.274229828628393
637,6.895,0.186631871632939
638,6.902,0.412211964991525
639,6.910,1.14494351256775
640,6.917,0.92016524418556
641,6.925,0.425211765672622
642,6.932,0.2913752350385
643,6.940,0.248537309172053
644,6.947,0.349493329072098
645,6.955,0.405444789658846
646,6.963,0.323311753247178
647,6.970,0.269930681946456
648,6.978,0.222020217931479
649,6.985,0.164084098360609
650,6.993,0.160916605368758
651,7.000,0.160615210164866
652,7.008,0.154257477373324
653,7.015,0.133296293947899
654,7.023,0.166631740838794
655,7.030,0.231767225091321
656,7.038,0.252654481391263
657,7.045,0.182901395147025
658,7.053,0.1546612332125
659,7.060,0.128132768568006
660,7.068,0.105840896883886
661,7.076,0.0946494674261447
662,7.083,0.0970890625670853
663,7.091,0.0937737153242685
664,7.098,0.0986699657120305
665,7.106,0.0859829336387471
666,7.113,0.0890594393992341
667,7.121,0.0715273372558308
668,7.128,0.0738475116556065
669,7.136,0.095166957304526
670,7.143,0.0868359389327823
671,7.151,0.100694431609874
672,7.158,0.0957470009044699
673,7.166,0.133768290210598
674,7.174,0.153137197087158
675,7.181,0.113216549326311
676,7.189,0.0992841295237359
677,7.196,0.0875012830621298
678,7.204,0.0883884085679264
679,7.211,0.109378025503152
680,7.219,0.0996139582374295
681,7.226,0.168536785995473
682,7.234,0.23731744620451
683,7.241,0.288349909595656
684,7.249,0.211010762936465
685,7.256,0.16192315161572
686,7.264,0.161587636200066
687,7.271,0.118869131074784
688,7.279,0.11635560880836
689,7.287,0.0999153534413219
690,7.294,0.104857097444766
691,7.302,0.112528458389122
692,7.309,0.102667717190075
693,7.317,0.092016524418556
694,7.324,0.0962588040808911
695,7.332,0.101302908719619
696,7.339,0.116321488596599
697,7.347,0.0986074119904679
698,7.354,0.103287567703741
