#"+EI TIC Scan TCM-Blank.d "
#Point,X(Minutes),Y(Counts)
0,2.095,0.150963832952854
1,2.102,0.130011529746522
2,2.110,0.139860771154323
3,2.117,0.11271652417223
4,2.125,0.126504690561371
5,2.132,0.122770234751441
6,2.140,0.100398221071914
7,2.147,0.10077629614358
8,2.155,0.0963204113703686
9,2.163,0.097705400663514
10,2.170,0.0997269449242612
11,2.178,0.0941831298427848
12,2.185,0.0907071539287903
13,2.193,0.0949354220772231
14,2.200,0.0898777035164608
15,2.208,0.0746273896562827
16,2.215,0.0787283468111953
17,2.223,0.0782769714705323
18,2.230,0.0693189070173743
19,2.238,0.065796636196645
20,2.245,0.0627643198055244
21,2.253,0.0636169176712211
22,2.260,0.0741567247711469
23,2.268,0.0646546951638566
24,2.276,0.0667495396936003
25,2.283,0.0587366629196084
26,2.291,0.0556541937128585
27,2.298,0.0517615636382519
28,2.306,0.060345410928638
29,2.313,0.0591417433535367
30,2.321,0.0672356362143142
31,2.328,0.058435746025833
32,2.336,0.116339100624217
33,2.343,0.116894639505033
34,2.351,0.0890482531041314
35,2.358,0.0741760143156197
36,2.366,0.0726289928489029
37,2.373,0.068227118800215
38,2.381,0.0728643252914708
39,2.389,0.0803949634536433
40,2.396,0.114533599261565
41,2.404,0.321452542821053
42,2.411,0.183621031745266
43,2.419,0.0581078237697958
44,2.426,0.0423058289376962
45,2.434,0.0619734484821405
46,2.441,0.0470201936068431
47,2.449,0.0442270675671849
48,2.456,0.0499792097289672
49,2.464,0.0462331801923538
50,2.471,0.0684585933338884
51,2.479,0.044651437545586
52,2.487,0.0476683223011285
53,2.494,0.0420280594972882
54,2.502,0.0515378049223677
55,2.509,0.0469893303356867
56,2.517,0.0539335663458867
57,2.524,0.0465996815373366
58,2.532,0.0418621694148224
59,2.539,0.0346131586019525
60,2.547,0.0508433813213477
61,2.554,0.0426954777360464
62,2.562,0.053852550259101
63,2.569,0.0678181804573921
64,2.577,0.182386500899009
65,2.584,0.136091594164342
66,2.592,0.0708852180285638
67,2.600,0.0508009443235076
68,2.607,0.0532005636559211
69,2.615,0.0443659522873889
70,2.622,0.057914928325068
71,2.630,0.0534629014607509
72,2.637,0.0364418074179718
73,2.645,0.0466729818063331
74,2.652,0.0423559817533255
75,2.660,0.0476065957588156
76,2.667,0.0493195073079982
77,2.675,0.0437949817709947
78,2.682,0.0388722900215418
79,2.690,0.0472362365049382
80,2.698,0.0462331801923538
81,2.705,0.0458280997584255
82,2.713,0.0631886897839255
83,2.720,0.0435905125995832
84,2.728,0.0640374297407277
85,2.735,0.0627643198055244
86,2.743,0.0820075693715675
87,2.750,0.053574780818693
88,2.758,0.0450295126172525
89,2.765,0.0436406654152125
90,2.773,0.0770540143509581
91,2.780,0.051873442996194
92,2.788,0.0497168719241375
93,2.795,0.0673359418455727
94,2.803,0.06110927688976
95,2.811,0.0660281107303184
96,2.818,0.0533548800117034
97,2.826,0.0448327592636301
98,2.833,0.049026306232012
99,2.841,0.0450835233417762
100,2.848,0.0433358906125426
101,2.856,0.0611131347986546
102,2.863,0.0612790248811205
103,2.871,0.05728994708415
104,2.878,0.0386562471234467
105,2.886,0.0551218022854098
106,2.893,0.0628839149812556
107,2.901,0.0506852070566709
108,2.909,0.0528340623109384
109,2.916,0.0569118720124836
110,2.924,0.0540878827016689
111,2.931,0.0528764993087785
112,2.939,0.0415496787943634
113,2.946,0.0557892205241679
114,2.954,0.0676330008304535
115,2.961,1.90133953541055
116,2.969,20.9602929356519
117,2.976,64.6218334958928
118,2.984,100
119,2.991,7.69034015877147
120,2.999,0.162892487254819
121,3.006,0.0992948591280709
122,3.014,0.0880644863360197
123,3.022,0.0910427920026166
124,3.029,0.0629572152502521
125,3.037,0.0672472099409979
126,3.044,0.083157226222145
127,3.052,0.0652526710425127
128,3.059,0.067393810478991
129,3.067,0.0722046228705018
130,3.074,0.0495355502060934
131,3.082,0.04305426326324
132,3.089,0.0505270327919941
133,3.097,0.0362797752444005
134,3.104,0.0489684375985937
135,3.112,0.0378306546200118
136,3.120,0.0376454749930731
137,3.127,0.0642071777320881
138,3.135,0.0795037864990009
139,3.142,0.0394856975357761
140,3.150,0.033748987009572
141,3.157,0.0426491828293117
142,3.165,0.0558740945198481
143,3.172,0.0475988799410265
144,3.180,0.0510285609482864
145,3.187,0.030381032544625
146,3.195,0.0296403140368703
147,3.202,0.0406700755664047
148,3.210,0.0386330996700794
149,3.217,0.0308054025230261
150,3.225,0.0388954374749091
151,3.233,0.034686458870949
152,3.240,0.0253888984350701
153,3.248,0.0267468823659537
154,3.255,0.0382897457784639
155,3.263,0.0483473142665702
156,3.270,0.0276959279540143
157,3.278,0.0324257242587395
158,3.285,0.0359287055349959
159,3.293,0.0235563917101562
160,3.300,0.0351416921205066
161,3.308,0.0368546036696892
162,3.315,0.0507932285057185
163,3.323,0.0271828260710385
164,3.330,0.0297251880325506
165,3.338,0.0264691129255457
166,3.346,0.0221636865992217
167,3.353,0.0241890887688633
168,3.361,0.0294705660455099
169,3.368,0.0268587617238958
170,3.376,0.0242662469467545
171,3.383,0.0284520780973472
172,3.391,0.0258209842312603
173,3.398,0.0178582602728977
174,3.406,0.0102851851128851
175,3.413,0.0311950513213762
176,3.421,0.0237531450637786
177,3.428,0.0193204077439342
178,3.436,0.0252384399881825
179,3.444,0.0332667483977526
180,3.451,0.0260370271293555
181,3.459,0.0245941692027917
182,3.466,0.0190233487590535
183,3.474,0.0245285847515842
184,3.481,0.0298370673904927
185,3.489,0.0647742903395878
186,3.496,0.0841371350813622
187,3.504,0.0375528851796038
188,3.511,0.0292506652385202
189,3.519,0.0234175069899522
190,3.526,0.0281318716590991
191,3.534,0.0157016892008411
192,3.541,0.0211837777400046
193,3.549,0.0122025658334792
194,3.557,0.0115660108658776
195,3.564,0.0142511154564882
196,3.572,0.0228156732024016
197,3.579,0.0241273622265505
198,3.587,0.0183443567936117
199,3.594,0.0168513460514187
200,3.602,0.0165195658864869
201,3.609,0.0157827052876268
202,3.617,0.0220981021480142
203,3.624,0.0190349224857371
204,3.632,0.0218666276143409
205,3.639,0.0267893193637938
206,3.647,0.0229275525603437
207,3.655,0.0320939440938077
208,3.662,0.0105282333732421
209,3.670,0.00817876685645778
210,3.677,0.0221829761436945
211,3.685,0.023992335415241
212,3.692,0.011492710596881
213,3.700,0.0108175765403338
214,3.707,0.0227925257490342
215,3.715,0.00817105103866867
216,3.722,0.0129587159768121
217,3.730,0.0184099412448191
218,3.737,0.0320978020027022
219,3.745,0.0212609359178957
220,3.752,0.0234599439877923
221,3.760,0.0197486356312299
222,3.768,0.0232053220007517
223,3.775,0.00888476418416145
224,3.783,0.0232516169074863
225,3.790,0.0156168152051609
226,3.798,0.0116817481327142
227,3.805,0.0146369063459438
228,3.813,0.0113306784233097
229,3.820,0.0153313299469638
230,3.828,0.0192239600215703
231,3.835,0.0235371021656835
232,3.843,0.0159293058256199
233,3.850,0.0108445819025957
234,3.858,0.026978356899627
235,3.866,0.00778911805810767
236,3.873,0.0207864131238653
237,3.881,0.0273525740623989
238,3.888,0.0415535367032579
239,3.896,0.0230162844649185
240,3.903,0.0146947749793621
241,3.911,0.0197254881778626
242,3.918,0.0256435204221108
243,3.926,0.0209638769330149
244,3.933,0.0121639867445337
245,3.941,0.0204392013233553
246,3.948,0.0171715524896668
247,3.956,0.0216583005340349
248,3.963,0.0128005417121353
249,3.971,0.0585129042037241
250,3.979,0.0591070221734857
251,3.986,0.0289767537070068
252,3.994,0.028575531181973
253,4.001,0.0292738126918876
254,4.009,0.0327304990614093
255,4.016,0.0332898958511199
256,4.024,0.0226073461220956
257,4.031,0.0125227722717273
258,4.039,0.0231821745473843
259,4.046,0.0301186947397952
260,4.054,0.0200495525250052
261,4.061,0.0312799253170565
262,4.069,0.0197332039956517
263,4.076,0.0224491718574188
264,4.084,0.0354618985587547
265,4.092,0.0525292875082685
266,4.099,0.0633931589553369
267,4.107,0.0380698449714742
268,4.114,0.0131670430571181
269,4.122,0.0293664025053569
270,4.129,0.0201537160651582
271,4.137,0.0355004776477002
272,4.144,0.0324064347142667
273,4.152,0.0169285042293098
274,4.159,0.0402842846769491
275,4.167,0.0234097911721631
276,4.174,0.0299528046573293
277,4.182,0.0335676652915279
278,4.190,0.0263610914764981
279,4.197,0.0156129572962663
280,4.205,0.0130127267013359
281,4.212,0.00646199739838056
282,4.220,0.028297761741565
283,4.227,0.0225186142175208
284,4.235,0.024964528456669
285,4.242,0.0243163997623837
286,4.250,0.0186336999607033
287,4.257,0.0105629545532931
288,4.265,0.012881557798921
289,4.272,0.0175843487413842
290,4.280,0.00624209659139089
291,4.287,0.0186761369585435
292,4.295,0.0100074156724771
293,4.303,0.0145211690791071
294,4.310,0.00895034863536889
295,4.318,0.0125883567229348
296,4.325,0.0131631851482236
297,4.333,0.0116547427704523
298,4.340,0.0206012334969267
299,4.348,0.0137804505713525
300,4.355,0.0249490968210908
301,4.363,0.00906608590220556
302,4.370,0.0194862978264001
303,4.378,0.0193821342862471
304,4.385,0.0125883567229348
305,4.393,0.0117087534949761
306,4.401,0.0112380886098403
307,4.408,0.0261566223050867
308,4.416,0.0590838747201184
309,4.423,0.128765425173581
310,4.431,0.0634896066777008
311,4.438,0.0329079628705589
312,4.446,0.0392850862732592
313,4.453,0.0175187642901768
314,4.461,0.0220865284213306
315,4.468,0.0282707563793031
316,4.476,0.0251574239013968
317,4.483,0.0180125766286799
318,4.491,0.0137380135735123
319,4.498,0.00602991160219034
320,4.506,0.0173991691144456
321,4.514,0.0197293460867571
322,4.521,0.0188304533143257
323,4.529,0.0198489412624883
324,4.536,0.00908151753778378
325,4.544,0.0130860269703325
326,4.551,0.0107905711780719
327,4.559,0.016839772324735
328,4.566,0.0144478688101106
329,4.574,0.0178544023640031
330,4.581,0.0155319412094807
331,4.589,0.0201652897918419
332,4.596,0.0116740323149251
333,4.604,0.00655844512074445
334,4.612,0.0169555095915717
335,4.619,0.0158405739210451
336,4.627,0.01944386082856
337,4.634,0.019721630268968
338,4.642,0.0257245365088965
339,4.649,0.0250995552679785
340,4.657,0.0170018044983063
341,4.664,0.0209870243863822
342,4.672,0.0329311103239262
343,4.679,0.0181321718044111
344,4.687,0.0266542925524843
345,4.694,0.0297058984880778
346,4.702,0.013298211959533
347,4.709,0.0234908072589488
348,4.717,0.0233866437187958
349,4.725,0.0278502443097966
350,4.732,0.0188728903121658
351,4.740,0.0156283889318446
352,4.747,0.0211027616532189
353,4.755,0.0173644479343946
354,4.762,0.00781998132926411
355,4.770,0.019652187908866
356,4.777,0.0128622682544482
357,4.785,0.0156515363852119
358,4.792,0.017950850086367
359,4.800,0.0228426785646635
360,4.807,0.0216351530806676
361,4.815,0.0131747588749072
362,4.822,0.0285099467307656
363,4.830,0.0316850057509848
364,4.838,0.0478264965658052
365,4.845,0.0319859226447601
366,4.853,0.0216120056273002
367,4.860,0.0168127669624731
368,4.868,0.0230317161004967
369,4.875,0.0226806463910921
370,4.883,0.0199723943471141
371,4.890,0.00726058453955356
372,4.898,0.0244359949381149
373,4.905,0.008090034951883
374,4.913,0.00959076151186512
375,4.920,0.0141238044629679
376,4.928,0.0189500484900569
377,4.936,0.0126500832652477
378,4.943,0.0112419465187349
379,4.951,0.00797815559394089
380,4.958,0.0163112388061809
381,4.966,0.00599133251324478
382,4.973,0.0161183433614531
383,4.981,0.0156862575652629
384,4.988,0.0191699492970466
385,4.996,0.0221058179658033
386,5.003,0.0144864478990561
387,5.011,0.016006464003511
388,5.018,0.0387719843902833
389,5.026,0.0197177723600735
390,5.033,0.0139309090182401
391,5.041,0.00846425211465489
392,5.049,0.0236489815236256
393,5.056,0.0236065445257855
394,5.064,0.0171599787629831
395,5.071,0.0207092549459742
396,5.079,0.0134949653131553
397,5.086,0.0195866034576586
398,5.094,0.0278888233987421
399,5.101,0.0207671235793926
400,5.109,0.0180164345375745
401,5.116,0.0157132629275248
402,5.124,0.0117473325839217
403,5.131,0.0196367562732878
404,5.139,0.0160527589102457
405,5.147,0.0204893541389846
406,5.154,0.0107828553602828
407,5.162,0.0187532951364346
408,5.169,0.0105706703710822
409,5.177,0.0157479841075758
410,5.184,0.0231744587295952
411,5.192,0.00376146117219167
412,5.199,0.0134100913174751
413,5.207,0.0183906517003463
414,5.214,0.0114888526879864
415,5.222,0.0142626891831719
416,5.229,0.0123453084625778
417,5.237,0.00962934060081067
418,5.244,0.00616108050460522
419,5.252,0.0121446972000609
420,5.260,0.00283556303749833
421,5.267,0.00869186873943367
422,5.275,0.00726444244844811
423,5.282,0.0110953459807418
424,5.290,0.0185372522383395
425,5.297,0.0137071503023559
426,5.305,0
427,5.312,0.00789328159826067
428,5.320,0.0119556596642277
429,5.327,0.009235833893566
430,5.335,0.0147642173394641
431,5.342,0.021110477471008
432,5.350,0.0207825552149708
433,5.358,0.0156206731140555
434,5.365,0.013471817859788
435,5.373,0.0128236891655027
436,5.380,0.0220055123345449
437,5.388,0.00622280704691811
438,5.395,0.0190735015746827
439,5.403,0.0127735363498734
440,5.410,0.0116277374081904
441,5.418,0.01666616642448
442,5.425,0.00505000274297322
443,5.433,0.0187070002296999
444,5.440,0.0170056624072009
445,5.448,0.0192085283859921
446,5.455,0.00549366226584711
447,5.463,0.00738403762417934
448,5.471,0.0122411449224248
449,5.478,0.0184523782426592
450,5.486,0.0277499386785381
451,5.493,0.0182324774356696
452,5.501,0.0241235043176559
453,5.508,0.0250262549989819
454,5.516,0.0126770886275096
455,5.523,0.0124186087315743
456,5.531,0.00662402957195189
457,5.538,0.00956761405849778
458,5.546,0.0139617722893966
459,5.553,0.00642727621832956
460,5.561,0.00752292234438334
461,5.569,0.00363415017867134
462,5.576,0.0158560055566233
463,5.584,0.0165427133398542
464,5.591,0.0269860727174161
465,5.599,0.0166777401511637
466,5.606,0.0152696034046509
467,5.614,0.00141971047319645
468,5.621,0.00444816895542256
469,5.629,0.00338724400941978
470,5.636,0.0121408392911663
471,5.644,0.0112882414254696
472,5.651,0.0161877857215551
473,5.659,0.017221705305296
474,5.666,0.0290500539760033
475,5.674,0.0176615069192753
476,5.682,0.0142665470920665
477,5.689,0.0112342307009458
478,5.697,0.0275570432338103
479,5.704,0.00674748265657767
480,5.712,0.0182556248890369
481,5.719,0.0273988689691336
482,5.727,0.00907765962888923
483,5.734,0.024339547215751
484,5.742,0.0212030672844773
485,5.749,0.0259405794069916
486,5.757,0.0177540967327447
487,5.764,0.0166430189711127
488,5.772,0.0169477937737826
489,5.779,0.0158405739210451
490,5.787,0.0220788126035415
491,5.795,0.0225649091242555
492,5.802,0.0225841986687282
493,5.810,0.0137881663891416
494,5.817,0.0283710620105616
495,5.825,0.0236644131592038
496,5.832,0.0159408795523036
497,5.840,0.0172757160298198
498,5.847,0.0232091799096462
499,5.855,0.0177348071882719
500,5.862,0.014617616801471
501,5.870,0.00930913416256256
502,5.877,0.0167934774180003
503,5.885,0.0109333138071704
504,5.893,0.0245594480227407
505,5.900,0.0171368313096158
506,5.908,0.0214808367248853
507,5.915,0.0199376731670631
508,5.923,0.0217856115275552
509,5.930,0.0209677348419095
510,5.938,0.009652488054178
511,5.945,0.0117936274906563
512,5.953,0.0215888581739329
513,5.960,0.00738017971528478
514,5.968,0.0192123862948867
515,5.975,0.019131370208101
516,5.983,0.0224105927684732
517,5.990,0.0244707161181659
518,5.998,0.022117391692487
519,6.006,0.0226189198487792
520,6.013,0.005659552348313
521,6.021,0.0188343112232202
522,6.028,0.0208828608462292
523,6.036,0.0232670485430646
524,6.043,0.0286989842665988
525,6.051,0.0242469574022817
526,6.058,0.0200997053406345
527,6.066,0.0178235390928467
528,6.073,0.00805917168072656
529,6.081,0.0266697241880626
530,6.088,0.0228503943824526
531,6.096,0.0218897750677082
532,6.104,0.0225147563086262
533,6.111,0.0149069599685627
534,6.119,0.0148066543373042
535,6.126,0.019652187908866
536,6.134,0.0388568583859636
537,6.141,0.0454770300490209
538,6.149,0.0417425742390911
539,6.156,0.0461637378322518
540,6.164,0.0383900514097223
541,6.171,0.0409439870979181
542,6.179,0.0162765176261299
543,6.186,0.0369741988454205
544,6.194,0.0240309145041866
545,6.201,0.0171676945807722
546,6.209,0.0269282040839978
547,6.217,0.0195287348242402
548,6.224,0.0209407294796476
549,6.232,0.0280354239367352
550,6.239,0.0189500484900569
551,6.247,0.024478431935955
552,6.254,0.0191738072059411
553,6.262,0.0263225123875526
554,6.269,0.0120984022933262
555,6.277,0.0201807214274201
556,6.284,0.000733002689965556
557,6.292,0.020589659770243
558,6.299,0.0154740725760623
559,6.307,0.0198103621735428
560,6.315,0.0218434801609736
561,6.322,0.0208905766640183
562,6.330,0.0159524532789872
563,6.337,0.013298211959533
564,6.345,0.0160797642725076
565,6.352,0.00761551215785267
566,6.360,0.0129972950657577
567,6.367,0.0261296169428248
568,6.375,0.0173142951187653
569,6.382,0.0248680807343051
570,6.390,0.000509243974081334
571,6.397,0.0175187642901768
572,6.405,0.0221752603259053
573,6.412,0.0296364561279758
574,6.420,0.0296557456724486
575,6.428,0.0266890137325353
576,6.435,0.026353375658709
577,6.443,0.0185989787806523
578,6.450,0.0242971102179109
579,6.458,0.0140736516473387
580,6.465,0.016041185183562
581,6.473,0.0284405043706636
582,6.480,0.0225841986687282
583,6.488,0.0107712816335991
584,6.495,0.0161646382681878
585,6.503,0.026283933298607
586,6.510,0.0260254534026718
587,6.518,0.0246597536539991
588,6.525,0.0193358393795125
589,6.533,0.0117627642194999
590,6.541,0.0232091799096462
591,6.548,0.036318354333346
592,6.556,0.0307398180718187
593,6.563,0.0201961530629983
594,6.571,0.0163382441684428
595,6.578,0.0151345765933415
596,6.586,0.020207726789682
597,6.593,0.0171985578519287
598,6.601,0.0109911824405888
599,6.608,0.0244167053936421
600,6.616,0.0187764425898019
601,6.623,0.0139501985627129
602,6.631,0.0174454640211802
603,6.639,0.0208018447594436
604,6.646,0.0204237696877771
605,6.654,0.00572127889062589
606,6.661,0.0168590618692078
607,6.669,0.0181283138955166
608,6.676,0.0281395874768882
609,6.684,0.015659252203001
610,6.691,0.0209214399351748
611,6.699,0.020277169149784
612,6.706,0.0170905364028811
613,6.714,0.0219707911544939
614,6.721,0.0187610109542237
615,6.729,0.025971442678148
616,6.736,0.0232786222697482
617,6.744,0.0173374425721327
618,6.752,0.00717956845276789
619,6.759,0.0195634560042912
620,6.767,0.0244128474847476
621,6.774,0.0230625793716531
622,6.782,0.0177193755526937
623,6.789,0.0153853406714876
624,6.797,0.0213689573669432
625,6.804,0.0198335096269101
626,6.812,0.0238573086039316
627,6.819,0.0179045551796323
628,6.827,0.022082670512436
629,6.834,0.0101810215727321
630,6.842,0.0223681557706331
631,6.850,0.014721780341624
632,6.857,0.0231474533673333
633,6.865,0.0165195658864869
634,6.872,0.0187995900431692
635,6.880,0.0254544828862776
636,6.887,0.0307822550696588
637,6.895,0.0271210995287256
638,6.902,0.015207876862338
639,6.910,0.031214340865849
640,6.917,0.0240887831376049
641,6.925,0.0170982522206702
642,6.932,0.0313262202237911
643,6.940,0.0235448179834726
644,6.947,0.0143475631788521
645,6.955,0.0298370673904927
646,6.963,0.0272792737934023
647,6.970,0.0279196866698986
648,6.978,0.0188227374965366
649,6.985,0.0214036785469942
650,6.993,0.0254274775240157
651,7.000,0.032012928007022
652,7.008,0.020311890329835
653,7.015,0.0349449387668842
654,7.023,0.030693523165084
655,7.030,0.0782653977438486
656,7.038,0.114819084519762
657,7.045,0.0898121190652534
658,7.053,0.0647009900705913
659,7.061,0.0548864698428419
660,7.068,0.0503958638895792
661,7.076,0.037950249795743
662,7.083,0.0423328342999581
663,7.091,0.0278502443097966
664,7.098,0.034721180051
665,7.106,0.0364688127802337
666,7.113,0.0325838985234162
667,7.121,0.0299450888395402
668,7.128,0.0409285554623399
669,7.136,0.0360251532573598
670,7.143,0.0191236543903119
671,7.151,0.0485710729824545
672,7.158,0.0409748503690746
673,7.166,0.0526681722284725
674,7.174,0.0800246041997659
675,7.181,0.0678181804573921
676,7.189,0.0517307003670955
677,7.196,0.0509282553170279
678,7.204,0.037568316815182
679,7.211,0.0467539978931188
680,7.219,0.0520972017120782
681,7.226,0.0683042769781061
682,7.234,0.106605596483254
683,7.241,0.1778573158568
684,7.249,0.148024106375202
685,7.256,0.121782610074435
686,7.264,0.087219604288112
687,7.272,0.0854796873766675
688,7.279,0.0688405263144494
689,7.287,0.0481852820929989
690,7.294,0.0547090060336924
691,7.302,0.0538101132612609
692,7.309,0.0601756629372776
693,7.317,0.0577258907892348
