#"+EI TIC Scan TCM-PEEK.d "
#Point,X(Minutes),Y(Counts)
0,2.095,0.202655000888624
1,2.102,0.197912304560624
2,2.110,0.201644939715188
3,2.117,0.169630591704395
4,2.125,0.18927628152774
5,2.133,0.199170289840268
6,2.140,0.164915442499306
7,2.148,0.174648759261515
8,2.155,0.159181049746477
9,2.163,0.152262130708435
10,2.170,0.2260746465509
11,2.178,0.190970429586822
12,2.185,0.162013812219252
13,2.193,0.132933232798578
14,2.200,0.183128681931231
15,2.208,0.210437063111239
16,2.215,0.142478310887555
17,2.223,0.144117364700814
18,2.230,0.166251477960534
19,2.238,0.159461112162748
20,2.246,0.121863880575142
21,2.253,0.176136303898758
22,2.261,0.177775357712017
23,2.268,0.118948476733631
24,2.276,0.124421171818797
25,2.283,0.106437491744472
26,2.291,0.114054271229615
27,2.298,0.120422247809418
28,2.306,0.109922202792828
29,2.313,0.180594346623336
30,2.321,0.141417746655446
31,2.328,0.121868471762294
32,2.336,0.107773527205699
33,2.344,0.0984258701642575
34,2.351,0.0762779833430812
35,2.359,0.10816836930077
36,2.366,0.107273087806133
37,2.374,0.0919063844084386
38,2.381,0.100707690178794
39,2.389,0.113338046033905
40,2.396,0.315662481447587
41,2.404,0.417233314810954
42,2.411,0.147886729352593
43,2.419,0.112084651941413
44,2.426,0.140320452926122
45,2.434,0.104339319216014
46,2.441,0.0906300343801867
47,2.449,0.0896061996452941
48,2.457,0.0912085239613369
49,2.464,0.230450047906742
50,2.472,0.405668114375103
51,2.479,0.214982338391704
52,2.487,0.203261037592686
53,2.494,0.149736977774843
54,2.502,0.115872381341801
55,2.509,0.104766299621149
56,2.517,0.121542497474503
57,2.524,0.1125162235337
58,2.532,0.110496101186826
59,2.539,0.120913504834681
60,2.547,0.100758193237466
61,2.555,0.113062574804786
62,2.562,0.105780951981738
63,2.570,0.100395489452459
64,2.577,0.130835060270121
65,2.585,0.100289892147963
66,2.592,0.105353971576603
67,2.600,0.0990594539912315
68,2.607,0.104325545654558
69,2.615,0.119958537907068
70,2.622,0.110702704608666
71,2.630,0.108393337471217
72,2.637,0.112075469567109
73,2.645,0.112511632346548
74,2.652,0.111749495279318
75,2.660,0.105234600710651
76,2.668,0.106786421968022
77,2.675,0.100634231184362
78,2.683,0.102222781938949
79,2.690,0.109738555306749
80,2.698,0.098288134549698
81,2.705,0.0906851286260106
82,2.713,0.109187612848511
83,2.720,0.163331482931871
84,2.728,0.156352878460854
85,2.735,0.119999858591436
86,2.743,0.112681506271171
87,2.750,0.113200310419346
88,2.758,0.0867780283596712
89,2.765,0.107511829538036
90,2.773,0.121326711678359
91,2.781,0.103292528545362
92,2.788,0.105652398741482
93,2.796,0.0991329129856632
94,2.803,0.108296922541026
95,2.811,0.107387867484933
96,2.818,0.09766832428418
97,2.826,0.229045144638235
98,2.833,0.250807371738644
99,2.841,0.126661671148966
100,2.848,0.0896429291425099
101,2.856,0.0814338865147605
102,2.863,0.10867799107464
103,2.871,0.0854787223956594
104,2.879,0.076957479041575
105,2.886,0.108696355823248
106,2.894,0.0972229791304374
107,2.901,0.115904519651865
108,2.909,0.107397049859236
109,2.916,0.104027118489679
110,2.924,0.0919155667827426
111,2.931,0.117033951691253
112,2.939,0.0943580783475987
113,2.946,0.104132715794175
114,2.954,0.344265577404454
115,2.961,7.71831818019666
116,2.969,43.9536888788454
117,2.976,100
118,2.984,90.0127263116666
119,2.992,1.21972691710644
120,2.999,0.189886909418954
121,3.007,0.129664307546364
122,3.014,0.127529405520691
123,3.022,0.120771178032969
124,3.029,0.124366077572974
125,3.037,0.128121668663297
126,3.044,0.132391472714644
127,3.052,0.0788260922124329
128,3.059,0.108834091437808
129,3.067,0.114187415657023
130,3.074,0.0872509206363257
131,3.082,0.0982973169240019
132,3.090,0.0988666241308481
133,3.097,0.083435644113026
134,3.105,0.0793265316119993
135,3.112,0.0974663120494926
136,3.120,0.109642140376557
137,3.127,0.117740994512659
138,3.135,0.102700265402756
139,3.142,0.0875998508598766
140,3.150,0.0720449087889509
141,3.157,0.0969888285856862
142,3.165,0.0989859949967997
143,3.172,0.0826505511100366
144,3.180,0.0848543209429894
145,3.187,0.0892389046731352
146,3.195,0.0690009517071847
147,3.203,0.069212146316176
148,3.210,0.0806212463888591
149,3.218,0.0713470483418491
150,3.225,0.0691019578245284
151,3.233,0.0668201378099918
152,3.240,0.0699696921962536
153,3.248,0.0722101915264223
154,3.255,0.091488586377608
155,3.263,0.0996058052623177
156,3.270,0.0657549823907312
157,3.278,0.0743542759263994
158,3.285,0.0678026518605166
159,3.293,0.0904004750225875
160,3.301,0.0932424198696663
161,3.308,0.084376837479183
162,3.316,0.0759015059966184
163,3.323,0.0674950423213336
164,3.331,0.05872128367389
165,3.338,0.0594375088695997
166,3.346,0.0652315870554049
167,3.353,0.0599149923334061
168,3.361,0.0681378085226115
169,3.368,0.0614392664678652
170,3.376,0.0630875026554279
171,3.383,0.0538913547900016
172,3.391,0.0616229139539446
173,3.398,0.0547177684773589
174,3.406,0.0658881268181388
175,3.414,0.0683490031316028
176,3.421,0.0503423671215171
177,3.429,0.0523165775968707
178,3.436,0.0567241172627765
179,3.444,0.096098138278201
180,3.451,0.265664453362468
181,3.459,0.581951336262725
182,3.466,0.339738666872597
183,3.474,0.0956849314345224
184,3.481,0.0738951572112009
185,3.489,0.122956583117314
186,3.496,0.0925629241711725
187,3.504,0.0664666163992889
188,3.511,0.0512651957390661
189,3.519,0.057807637430645
190,3.527,0.0606174439676599
191,3.534,0.0549151895248943
192,3.542,0.0606633558391797
193,3.549,0.0980310280691868
194,3.557,0.139677686724844
195,3.564,0.082526589056933
196,3.572,0.0537444368011381
197,3.579,0.0514993462838174
198,3.587,0.0557461943994036
199,3.594,0.0510631835043788
200,3.602,0.0407238300381082
201,3.609,0.0522477097895909
202,3.617,0.0492772117022566
203,3.625,0.0455537589219966
204,3.632,0.0430653354856207
205,3.640,0.044800804229071
206,3.647,0.0416558410299612
207,3.655,0.0400030136552466
208,3.662,0.0514258872893856
209,3.670,0.0470872154307596
210,3.677,0.0440432583489935
211,3.685,0.0592309054477603
212,3.692,0.0456409914778843
213,3.700,0.0400121960295505
214,3.707,0.0684959211204664
215,3.715,0.0527940610606772
216,3.722,0.047587654830326
217,3.730,0.0393510650796647
218,3.738,0.0378405645066616
219,3.745,0.0396403098702397
220,3.753,0.0430286059884048
221,3.760,0.0339472378017782
222,3.768,0.0325147874103588
223,3.775,0.0439376610444978
224,3.783,0.0487308604311703
225,3.790,0.0297187544347998
226,3.798,0.0396816305546076
227,3.805,0.0227355587766304
228,3.813,0.0425740784603582
229,3.820,0.0412013135019147
230,3.828,0.0468530648860084
231,3.836,0.0486023071909147
232,3.843,0.0487584075540822
233,3.851,0.0367203148415772
234,3.858,0.042326154354151
235,3.866,0.0355220149949091
236,3.873,0.0272349221855759
237,3.881,0.0504158261159489
238,3.888,0.0355954739893408
239,3.896,0.0302605145187341
240,3.903,0.0210551842790039
241,3.911,0.0370462891293681
242,3.918,0.0383639598419879
243,3.926,0.0419909976920561
244,3.933,0.0415823820355294
245,3.941,0.0374594959730468
246,3.949,0.0412196782505226
247,3.956,0.0348792487936311
248,3.964,0.0459853305142832
249,3.971,0.100253162650748
250,3.979,0.0672103887179105
251,3.986,0.0439009315472819
252,3.994,0.039562259688656
253,4.001,0.0438228813656982
254,4.009,0.0507693475266517
255,4.016,0.0413298667421703
256,4.024,0.0235803372125957
257,4.031,0.0424179780971907
258,4.039,0.030912463094316
259,4.047,0.0347828338634395
260,4.054,0.0411599928175468
261,4.062,0.0360224543944754
262,4.069,0.0224968170447272
263,4.077,0.029365233024097
264,4.084,0.0441764027764011
265,4.092,0.0248612784279996
266,4.099,0.0460128776371951
267,4.107,0.0357240272295964
268,4.114,0.0198431108708798
269,4.122,0.0402371641999978
270,4.129,0.0382583625374922
271,4.137,0.0415456525383136
272,4.144,0.0502229962555655
273,4.152,0.0252469381487663
274,4.160,0.0390067260432658
275,4.167,0.0332861068518923
276,4.175,0.0333549746591721
277,4.182,0.0421562804295276
278,4.190,0.0256785097410529
279,4.197,0.0292045414737775
280,4.205,0.0199027963038556
281,4.212,0.0298013958035356
282,4.220,0.0336534018240511
283,4.227,0.0265049234284102
284,4.235,0.0370049684450003
285,4.242,0.0502000403198056
286,4.250,0.272973623308429
287,4.258,1.046983500513
288,4.265,0.801015240032544
289,4.273,0.157826649536641
290,4.280,0.0560262568156747
291,4.288,0.0448375337262869
292,4.295,0.0350491227182546
293,4.303,0.0359581777743476
294,4.310,0.0348608840450232
295,4.318,0.0326157935277025
296,4.325,0.0415869732226814
297,4.333,0.0286076871440194
298,4.340,0.0481018677913484
299,4.348,0.029966678541007
300,4.355,0.0264590115568904
301,4.363,0.024429706835713
302,4.371,0.0288280641273147
303,4.378,0.0372069806796876
304,4.386,0.0372896220484233
305,4.393,0.0354852854976932
306,4.401,0.0251137937213587
307,4.408,0.0346818277460958
308,4.416,0.0993027869102867
309,4.423,0.13420958282683
310,4.431,0.0506132471634842
311,4.438,0.0295810188202403
312,4.446,0.0322622721169996
313,4.453,0.0435152718265152
314,4.461,0.037404401727223
315,4.468,0.0362244666291628
316,4.476,0.0303201999517099
317,4.484,0.0304533443791175
318,4.491,0.0344889978857124
319,4.499,0.0245582600759685
320,4.506,0.0323035928013675
321,4.514,0.0272257398112719
322,4.521,0.0288005170044028
323,4.529,0.0274277520459592
324,4.536,0.0328820823825176
325,4.544,0.0291632207894096
326,4.551,0.0357699391011163
327,4.559,0.0410406219515952
328,4.566,0.0194161304657452
329,4.574,0.0168817951578494
330,4.582,0.030917054281468
331,4.589,0.0246546750061602
332,4.597,0.020384870954814
333,4.604,0.0147560755064803
334,4.612,0.0238649908160188
335,4.619,0.0339288730531702
336,4.627,0.0277261792108383
337,4.634,0.0281531596159729
338,4.642,0.0314771791140101
339,4.649,0.0469448886290481
340,4.657,0.0266564326044257
341,4.664,0.0261514020177074
342,4.672,0.0288051081915548
343,4.679,0.0180295919458457
344,4.687,0.0362336490034668
345,4.695,0.0137506055201955
346,4.702,0.0250632906626869
347,4.710,0.0269778157050647
348,4.717,0.0342364825923532
349,4.725,0.0274690727303271
350,4.732,0.0181122333145814
351,4.740,0.0252561205230703
352,4.747,0.021936692212185
353,4.755,0.0261559932048594
354,4.762,0.0314817703011621
355,4.770,0.0303752941975337
356,4.777,0.0394107505126405
357,4.785,0.0127864562182786
358,4.793,0.0257152392382688
359,4.800,0.014218906609698
360,4.808,0.0382767272861001
361,4.815,0.0422756512954792
362,4.823,0.0312843492536268
363,4.830,0.0229513445727737
364,4.838,0.0220927925753525
365,4.845,0.0136633729643078
366,4.853,0.00988023475107203
367,4.860,0.0213490202567309
368,4.868,0.00758004998792747
369,4.875,0.0268171241547452
370,4.883,0.0307104508596286
371,4.890,0.0115789739973065
372,4.898,0.0261697667663153
373,4.906,0.0271339160682322
374,4.913,0.0196870105077123
375,4.921,0.024714360439136
376,4.928,0.035531197369213
377,4.936,0.0274461167945672
378,4.943,0.0352144054557261
379,4.951,0.0118039421677538
380,4.958,0.0223728549916236
381,4.966,0.0084064636752848
382,4.973,0.0159038722944765
383,4.981,0.0269135390849369
384,4.988,0.0255637300622533
385,4.996,0.0232359981761968
386,5.004,0.0266610237915777
387,5.011,0.0265508352999301
388,5.019,0.0277124056493823
389,5.026,0.021936692212185
390,5.034,0.0270604570738004
391,5.041,0.0280842918086931
392,5.049,0.0481477796628682
393,5.056,0.0458246389639637
394,5.064,0.0472387246067751
395,5.071,0.0350674874668625
396,5.079,0.0217209064160417
397,5.086,0.00863143184573207
398,5.094,0.0229054327012539
399,5.101,0.0245582600759685
400,5.109,0.0254948622549735
401,5.117,0.0283735365992682
402,5.124,0.0197604695021441
403,5.132,0.0192370741668178
404,5.139,0.0214362528126186
405,5.147,0.0213765673796428
406,5.154,0.0272808340570957
407,5.162,0.0220468807038327
408,5.169,0.0187044964571875
409,5.177,0.0321474924382
410,5.184,0.013915888257667
411,5.192,0.0293330947140331
412,5.199,0.0285801400211075
413,5.207,0.0181902834961651
414,5.214,0.0288831583731385
415,5.222,0.0204904682593097
416,5.230,0.0348425192964153
417,5.237,0.00649652982005898
418,5.245,0.0278639148253978
419,5.252,0.0267758034703774
420,5.260,0.0224692699218153
421,5.267,0.0362979256235945
422,5.275,0.0193885833428333
423,5.282,0.0377579231379258
424,5.290,0.0186861317085795
425,5.297,0.0133924929223407
426,5.305,0.0236492050198755
427,5.312,0.0307012684853247
428,5.320,0.0209954988460281
429,5.328,0.0252790764588302
430,5.335,0.0283873101607241
431,5.343,0.0272670604956398
432,5.350,0.0260136664031478
433,5.358,0.0192003446696019
434,5.365,0.0212617877008432
435,5.373,0.0132593484949331
436,5.380,0.0230110300057495
437,5.388,0.0304487531919655
438,5.395,0.0250495171012309
439,5.403,0.00733671706887226
440,5.410,0.0130481538859418
441,5.418,0.0225014082318792
442,5.425,0.0026261590509355
443,5.433,0.0212939260109071
444,5.441,0.0220468807038327
445,5.448,0.033364157033476
446,5.456,0.0198568844323357
447,5.463,0.0277445439594462
448,5.471,0.0345945951902081
449,5.478,0.030894098345708
450,5.486,0.0379691177469171
451,5.493,0.0113999176983791
452,5.501,0.0202655000888624
453,5.508,0.0206832981196931
454,5.516,0.0165466384957545
455,5.523,0.0289474349932663
456,5.531,0.0151187792914871
457,5.539,0.0244756187072328
458,5.546,0.0213398378824269
459,5.554,0.0313853553709704
460,5.561,0.0251367496571187
461,5.569,0.0176531145993829
462,5.576,0.0207246188040609
463,5.584,0.0197742430636
464,5.591,0.0099812408684157
465,5.599,0.0275563052862148
466,5.606,0.00548187745947026
467,5.614,0.0156054451295975
468,5.621,0.0258483836656764
469,5.629,0.0303064263902539
470,5.636,0.0412059046890667
471,5.644,0.0208118513599487
472,5.652,0.0186631757728196
473,5.659,0.0118360804778177
474,5.667,0.0259907104673879
475,5.674,0.0211929198935634
476,5.682,0.0174235552417836
477,5.689,0.0187136788314914
478,5.697,0.02349769584386
479,5.704,0.0226345526592868
480,5.712,0.0273267459286156
481,5.719,0.0198339284965758
482,5.727,0.0149994084255355
483,5.734,0.0270880041967124
484,5.742,0.0162252553951155
485,5.750,0.0165053178113866
486,5.757,0.020077261415631
487,5.765,0.0188927351304189
488,5.772,0.0243654302155852
489,5.780,0.0217163152288897
490,5.787,0.0201553115972148
491,5.795,0.0238879467517787
492,5.802,0.00410452131387472
493,5.810,0.0187871378259232
494,5.817,0.0283964925350281
495,5.825,0.00405401825520288
496,5.832,0.0261743579534673
497,5.840,0.0164639971270187
498,5.847,0.0100730646114554
499,5.855,0.0183831133565485
500,5.863,0.0205134241950696
501,5.870,0.0240256823663383
502,5.878,0.00664803899607449
503,5.885,0.0223407166815597
504,5.893,0.0343925829555207
505,5.900,0.00830086637078914
506,5.908,0.0174924230490634
507,5.915,0.0202241794044946
508,5.923,0.0178275797111583
509,5.930,0.0198752491809437
510,5.938,0.018539213719716
511,5.945,0.0104265860221583
512,5.953,0.0120151367767451
513,5.961,0.0188146849488351
514,5.968,0.00799325683160614
515,5.976,0.00970576963929659
516,5.983,0.01482494331376
517,5.991,0.00761218829799137
518,5.998,0.0084386019853487
519,6.006,0.00669395086759434
520,6.013,0.0173730521831118
521,6.021,0.0255224093778854
522,6.028,0.018557578468324
523,6.036,0.00975168151081645
524,6.043,0.0095175309660652
525,6.051,0.0150728674199672
526,6.058,0.0342318914052012
527,6.066,0.0256234154952291
528,6.074,0.0209954988460281
529,6.081,0.0234563751594921
530,6.089,0.0199303434267675
531,6.096,0.0204904682593097
532,6.104,0.0205685184408934
533,6.111,0.0195997779518246
534,6.119,0.0232176334275889
535,6.126,0.0182683336777489
536,6.134,0.0268079417804413
537,6.141,0.0347966074248954
538,6.149,0.0362061018805548
539,6.156,0.0227814706481503
540,6.164,0.0277353615851423
541,6.171,0.0126165822936552
542,6.179,0.0294295096442248
543,6.187,0.0180341831329976
544,6.194,0.0218953715278172
545,6.202,0.0150820497942712
546,6.209,0.00893904138491508
547,6.217,0.0258851131628922
548,6.224,0.0224325404245994
549,6.232,0.0381160357357807
550,6.239,0.0369728301349364
551,6.247,0.0277629087080542
552,6.254,0.017937768202806
553,6.262,0.0177633030910305
554,6.269,0.00428816879995412
555,6.277,0.00937061297720168
556,6.285,0.0261284460819475
557,6.292,0.0182821072392048
558,6.300,0.0177633030910305
559,6.307,0.00647816507145104
560,6.315,0.0114871502542668
561,6.322,0.0229100238884059
562,6.330,0.0243057447826094
563,6.337,0.0134889078525324
564,6.345,0.0198706579937917
565,6.352,0.0325331521589667
566,6.360,0.0171710399484244
567,6.367,0.0021027637156092
568,6.375,0.0176668881608388
569,6.382,0.00789684190141445
570,6.390,0.0186264462756037
571,6.398,0.0186080815269958
572,6.405,0.0153758857719982
573,6.413,0.0280475623114772
574,6.420,0.0212755612622992
575,6.428,0.00280521534986292
576,6.435,0.0111841319022358
577,6.443,0.0166200974901862
578,6.450,0.0362106930677068
579,6.458,0.0764065365833368
580,6.465,0.0637945454768336
581,6.473,0.0685188770562263
582,6.480,0.0437126928740506
583,6.488,0.0411921311276107
584,6.496,0.0191406592366261
585,6.503,0.0176898440965988
586,6.511,0.0182866984263568
587,6.518,0.0263442318780908
588,6.526,0.0204445563877898
589,6.533,0.0212847436366031
590,6.541,0.0231304008717012
591,6.548,0.0158717339844126
592,6.556,0.0109316166088766
593,6.563,0.0237502111372191
594,6.571,0.0035535788556365
595,6.578,0.0146826165120485
596,6.586,0.0335478045195554
597,6.593,0.00587671955454098
598,6.601,0.0111749495279318
599,6.609,0.0110555786619802
600,6.616,0.00898495325643493
601,6.624,0.0158120485514368
602,6.631,0.0249071902995194
603,6.639,0.0377487407636219
604,6.646,0.0268033505932893
605,6.654,0.0269640421436088
606,6.661,0.0293376859011851
607,6.669,0.0137873350174114
608,6.676,0.015444753579278
609,6.684,0.0204721035107018
610,6.691,0.0117121184247141
611,6.699,0.015747771931309
612,6.707,0.0174465111775435
613,6.714,0.0117258919861701
614,6.722,0.020081852602783
615,6.729,0.0218907803406652
616,6.737,0.00688218954082573
617,6.744,0.0172353165685522
618,6.752,0.0130848833831577
619,6.759,0.0133970841094927
620,6.767,0.021335246695275
621,6.774,0.0128048209668866
622,6.782,0.0167532419175938
623,6.789,0.0158533692358047
624,6.797,0.0096736313292327
625,6.804,0.00858551997421222
626,6.812,0.0151830559116149
627,6.820,0.0099215554354399
628,6.827,0.0186815405214276
629,6.835,0.0208026689856447
630,6.842,0.0104311772093102
631,6.850,0.0224554963603593
632,6.857,0.0221983898798482
633,6.865,0.0111933142765398
634,6.872,0.0126349470422631
635,6.880,0.0164915442499306
636,6.887,0.00311741607619791
637,6.895,0.00880130577035552
638,6.902,0.0229329798241658
639,6.910,0.0291815855380176
640,6.917,0.0222810312485839
641,6.925,0.017001166023801
642,6.933,0.0334881190865796
643,6.940,0.0261146725204915
644,6.948,0.0305222121863972
645,6.955,0.0248658696151515
646,6.963,0.0122814256315603
647,6.970,0.0179882712614778
648,6.978,0.0104174036478543
649,6.985,0.0109775284803965
650,6.993,0.0264865586798023
651,7.000,0.0369911948835443
652,7.008,0.0402830760715177
653,7.015,0.0275838524091267
654,7.023,0.0313715818095145
655,7.031,0.0806992965704429
656,7.038,0.0736059124206258
657,7.046,0.0671185649748708
658,7.053,0.0452186022599017
659,7.061,0.0267115268502496
660,7.068,0.0347461043662236
661,7.076,0.0136495994028518
662,7.083,0.0222718488742799
663,7.091,0.0302191938343662
664,7.098,0.0170378955210169
665,7.106,0.0254397680091497
666,7.113,0.0207383923655169
667,7.121,0.0218035477847775
668,7.128,0.0213444290695789
669,7.136,0.0238420348802589
670,7.144,0.0161701611492917
671,7.151,0.0214867558712905
672,7.159,0.0392913796466889
673,7.166,0.0518390941330643
674,7.174,0.0344384948270406
675,7.181,0.0323403222985834
676,7.189,0.0272303309984239
677,7.196,0.0326892525221342
678,7.204,0.00567011613270165
679,7.211,0.0289887556776342
680,7.219,0.0364264788638501
681,7.226,0.0592033583248484
682,7.234,0.0961532325240249
683,7.242,0.0946748702610857
684,7.249,0.0575459397629818
685,7.257,0.048216647470148
686,7.264,0.0587763779197138
687,7.272,0.0439606169802578
688,7.279,0.0313210787508427
689,7.287,0.0171021721411447
690,7.294,0.024108323735074
691,7.302,0.0320189391979444
692,7.309,0.013277713243541
693,7.317,0.0186264462756037
694,7.324,0.0236446138327235
695,7.332,0.0342089354694413
696,7.339,0.0320235303850964
