#"+EI TIC Scan TCM-TPU.d "
#Point,X(Minutes),Y(Counts)
0,2.095,0.258283780743718
1,2.102,0.278105703675159
2,2.110,0.239925548697794
3,2.117,0.259587796259906
4,2.125,0.258536600078489
5,2.132,0.233347810566819
6,2.140,0.221740298301977
7,2.147,0.222866896741132
8,2.155,0.208438452951475
9,2.162,0.197026099471368
10,2.170,0.263428875977657
11,2.178,0.236554624234179
12,2.185,0.178330774979083
13,2.193,0.173553820179986
14,2.200,0.213548064770007
15,2.208,0.223190682906716
16,2.215,0.158792719370893
17,2.223,0.161728971995779
18,2.230,0.193575337323089
19,2.238,0.16817364731898
20,2.245,0.142980422380384
21,2.253,0.181874681092804
22,2.260,0.176507814512575
23,2.268,0.150902094869879
24,2.276,0.10922238804805
25,2.283,0.133736992666997
26,2.291,0.134593030063679
27,2.298,0.238927577639487
28,2.306,0.212235178399968
29,2.313,0.24653433481725
30,2.321,0.181253721323191
31,2.328,0.136225267172376
32,2.336,0.133887797182475
33,2.343,0.116545277902561
34,2.351,0.115853351302135
35,2.358,0.114859815670754
36,2.366,0.113870715466298
37,2.373,0.0879722576464986
38,2.381,0.110215923679431
39,2.389,0.124542352649795
40,2.396,0.277027894932188
41,2.404,0.42375625306488
42,2.411,0.15115491420465
43,2.419,0.117946872811117
44,2.426,0.127802391440265
45,2.434,0.108370786078295
46,2.441,0.0985330091568502
47,2.449,0.0758502358582622
48,2.456,0.0894403839589414
49,2.464,0.204020767733369
50,2.471,0.419440582666068
51,2.479,0.215996420433054
52,2.487,0.187680654938688
53,2.494,0.135160764710182
54,2.502,0.100524515846538
55,2.509,0.105762755045919
56,2.517,0.0913032632677813
57,2.524,0.0888105533354765
58,2.532,0.095747561047442
59,2.539,0.0916492265679944
60,2.547,0.106388150242458
61,2.554,0.0665491455948404
62,2.562,0.0718273036365533
63,2.569,0.0994866259458991
64,2.577,0.0969939160135944
65,2.584,0.0855904333873391
66,2.592,0.101216442446965
67,2.600,0.0877016966040242
68,2.607,0.0838827940209026
69,2.615,0.091170200460007
70,2.622,0.0743022718611548
71,2.630,0.0925096993916014
72,2.637,0.0913697946716684
73,2.645,0.0876706486155436
74,2.652,0.0745329140612969
75,2.660,0.0758191878697815
76,2.667,0.0858033338797779
77,2.675,0.0816384679964431
78,2.682,0.0822150734967983
79,2.690,0.076018782081443
80,2.698,0.084290853298077
81,2.705,0.0701107934162652
82,2.713,0.102405136863082
83,2.720,0.156796777254279
84,2.728,0.119472659673595
85,2.735,0.0937250063692731
86,2.743,0.081944512454324
87,2.750,0.0790703558063997
88,2.758,0.0786312485407445
89,2.765,0.0891032915125799
90,2.773,0.104214791048812
91,2.780,0.0868279174996398
92,2.788,0.081571936592556
93,2.795,0.0899105392130772
94,2.803,0.085337614052568
95,2.811,0.0775268272362181
96,2.818,0.0846767354406224
97,2.826,0.171903841363585
98,2.833,0.204286893348918
99,2.841,0.102458361986191
100,2.848,0.0743643678381161
101,2.856,0.0797312344183452
102,2.863,0.0647394914091103
103,2.871,0.0633157193659256
104,2.878,0.0768659486242725
105,2.886,0.0844327869597029
106,2.893,0.0811239584730493
107,2.901,0.0835457015745411
108,2.908,0.0821751546544661
109,2.916,0.0775401335169955
110,2.924,0.0725635845062376
111,2.931,0.0727365661563442
112,2.939,0.0770788491167113
113,2.946,0.0614794526186406
114,2.954,0.215277881271073
115,2.961,5.69187692364466
116,2.969,36.9655798451362
117,2.976,88.9786560159647
118,2.984,100
119,2.991,2.12678277549856
120,2.999,0.1640353939972
121,3.006,0.128724960240833
122,3.014,0.111448972364806
123,3.022,0.105004297041606
124,3.029,0.0769723988704919
125,3.037,0.108264335832075
126,3.044,0.113152176304317
127,3.052,0.0837630374939057
128,3.059,0.0774336832707761
129,3.067,0.0818336267811787
130,3.074,0.0799308286300066
131,3.082,0.0725059239562021
132,3.089,0.0696583798698326
133,3.097,0.0680350136149865
134,3.104,0.0568932211773539
135,3.112,0.0634620884544773
136,3.119,0.0760143466545171
137,3.127,0.108659088828472
138,3.135,0.0933036408113212
139,3.142,0.0741248547841225
140,3.150,0.0694499148043196
141,3.157,0.0717164179634081
142,3.165,0.0889036973009185
143,3.172,0.0696982987121649
144,3.180,0.0587117462169357
145,3.187,0.0735792972722479
146,3.195,0.0553496926071723
147,3.202,0.0663584222370306
148,3.210,0.0851779386832388
149,3.217,0.0715478717402273
150,3.225,0.0948294276737995
151,3.233,0.0842952887250028
152,3.240,0.0796824447221613
153,3.248,0.0780457721865377
154,3.255,0.102972871509585
155,3.263,0.0847432668445095
156,3.270,0.0678975153802864
157,3.278,0.0668064003565374
158,3.285,0.0787554404946672
159,3.293,0.0784981857329703
160,3.300,0.0737833269108351
161,3.308,0.0643846572550456
162,3.315,0.075646206219675
163,3.323,0.0595766544674685
164,3.330,0.0761030551930333
165,3.338,0.0545158323451202
166,3.346,0.159777384148423
167,3.353,0.345577418070568
168,3.361,0.260519235914326
169,3.368,0.176401364266356
170,3.376,0.130423728753418
171,3.383,0.107195397942955
172,3.391,0.0888726493124379
173,3.398,0.0660124589368175
174,3.406,0.0702172436624846
175,3.413,0.0574565203969317
176,3.421,0.0608496219951757
177,3.428,0.0468381083365446
178,3.436,0.0633999924775159
179,3.444,0.0575762769239285
180,3.451,0.238009444265845
181,3.459,0.624570207130889
182,3.466,0.384626916725392
183,3.474,0.0826852287509341
184,3.481,0.0789816472678835
185,3.489,0.11108526735689
186,3.496,0.0911746358869328
187,3.504,0.0558375895690113
188,3.511,0.0347382636829372
189,3.519,0.0469090751673575
190,3.526,0.0461594880168958
191,3.534,0.0420567181105223
192,3.541,0.0509364428159922
193,3.549,0.0753978223118297
194,3.557,0.157643943797109
195,3.564,0.100905962562158
196,3.572,0.054892843633814
197,3.579,0.0516239339894927
198,3.587,0.0364680801840028
199,3.594,0.046478838755554
200,3.602,0.0386680519392041
201,3.609,0.0344277837981306
202,3.617,0.0317842693503483
203,3.624,0.0401095656900921
204,3.632,0.034720521975234
205,3.639,0.0304358995649024
206,3.647,0.0264617570393774
207,3.655,0.0335939235360785
208,3.662,0.0277835142632685
209,3.670,0.0393644139665562
210,3.677,0.0336161006707075
211,3.685,0.0315181437347998
212,3.692,0.0278544810940814
213,3.700,0.038623697669946
214,3.707,0.0531009311557871
215,3.715,0.0426998550147646
216,3.722,0.035580994798841
217,3.730,0.0478582565294807
218,3.737,0.0324185354007391
219,3.745,0.0270827168089906
220,3.752,0.0319572510004549
221,3.760,0.0378829813733359
222,3.768,0.0401406136785728
223,3.775,0.0368761394611772
224,3.783,0.0411563264445831
225,3.790,0.0390317569471205
226,3.798,0.0398523109283952
227,3.805,0.0301475968147248
228,3.813,0.0285951973906916
229,3.820,0.0410897950406959
230,3.828,0.0322278120429293
231,3.835,0.0176175157493139
232,3.843,0.0312963723885093
233,3.850,0.029562120460518
234,3.858,0.0346495551444211
235,3.865,0.0355765593719152
236,3.873,0.0299923568723214
237,3.881,0.0326624838816586
238,3.888,0.0354523674179925
239,3.896,0.0365656595763706
240,3.903,0.0281028650019267
241,3.911,0.0199682920199928
242,3.918,0.0299036483338053
243,3.926,0.0112349364030746
244,3.933,0.0326669193085844
245,3.941,0.0240045305224791
246,3.948,0.0353370463179215
247,3.956,0.0445361217620496
248,3.963,0.0483949431875036
249,3.971,0.0944258038235509
250,3.979,0.0501203242616434
251,3.986,0.0197110372582958
252,3.994,0.0271492482128778
253,4.001,0.0252730626232605
254,4.009,0.0233835707528658
255,4.016,0.0278323039594524
256,4.024,0.0371910547729097
257,4.031,0.0337092446361495
258,4.039,0.0285242305598786
259,4.046,0.032977399193391
260,4.054,0.0287105184907626
261,4.061,0.0261601480084223
262,4.069,0.0310524239075898
263,4.076,0.0196267641467055
264,4.084,0.0270339271128067
265,4.092,0.0113458220762198
266,4.099,0.0236940506376725
267,4.107,0.0284310865944366
268,4.114,0.0327955466894328
269,4.122,0.0200126462892509
270,4.129,0.0271581190667294
271,4.137,0.027818997678675
272,4.144,0.027073845955139
273,4.152,0.0305157372495669
274,4.159,0.0224476956715201
275,4.167,0.0321479743582647
276,4.174,0.0346717322790501
277,4.182,0.0235920358183788
278,4.190,0.0289189835562756
279,4.197,0.0348890681984147
280,4.205,0.0239468699724436
281,4.212,0.0308528296959284
282,4.220,0.0142332850049215
283,4.227,0.0327467569932489
284,4.235,0.0162735813907938
285,4.242,0.0271980379090617
286,4.250,0.265690943709819
287,4.257,1.09608270190596
288,4.265,0.91680274556475
289,4.272,0.157635072943257
290,4.280,0.0506437046388888
291,4.287,0.0356652679104313
292,4.295,0.0396305395821047
293,4.303,0.0444208006619786
294,4.310,0.0146191671474669
295,4.318,0.0277657725555653
296,4.325,0.0225940647600718
297,4.333,0.0276149680400877
298,4.340,0.0338556137247012
299,4.348,0.0160562454714291
300,4.355,0.0348092305137502
301,4.363,0.0201900633662832
302,4.370,0.0252553209155573
303,4.378,0.0136744212122696
304,4.385,0.0250867746923765
305,4.393,0.0103389801640611
306,4.401,0.013687727493047
307,4.408,0.0355721239449894
308,4.416,0.128627380848465
309,4.423,0.164651918339887
310,4.431,0.0505549961003726
311,4.438,0.0230553491603559
312,4.446,0.02277591726403
313,4.453,0.00954060331741547
314,4.461,0.0265815135663742
315,4.468,0.0169522017104426
316,4.476,0.0285730202560625
317,4.483,0.0148808573360897
318,4.491,0.0268964288781067
319,4.498,0.022030765540494
320,4.506,0.0166461572525617
321,4.514,0.015825603271287
322,4.521,0.0149961784361607
323,4.529,0.0230908325757624
324,4.536,0.0152135143555254
325,4.544,0.0110708256068196
326,4.551,0.0195336201812635
327,4.559,0.0159852786406162
328,4.566,0.0295709913143696
329,4.574,0.0197553915275539
330,4.581,0.0254770922618477
331,4.589,0.0107514748681614
332,4.596,0.0104188178487257
333,4.604,0.0184203280228854
334,4.611,0.013572406392976
335,4.619,0.027818997678675
336,4.627,0.0175997740416107
337,4.634,0.0219509278558295
338,4.642,0.0278367393863782
339,4.649,0.018220733811224
340,4.657,0.0238847739954823
341,4.664,0.0152844811863383
342,4.672,0.00690595972348484
343,4.679,0.011922427576575
344,4.687,0.0169699434181458
345,4.694,0.0166772052410424
346,4.702,0.0212767429631065
347,4.709,0.00859142195529232
348,4.717,0.013851838289302
349,4.725,0.0140292553663343
350,4.732,0.0144816689127669
351,4.740,0.0283379426289946
352,4.747,0.00968697240596718
353,4.755,0.0198574063468475
354,4.762,0.0157280238789192
355,4.770,0.0236275192337853
356,4.777,0.0216093999825422
357,4.785,0.0131332991273209
358,4.792,0.0182917006420369
359,4.800,0.02812060670963
360,4.807,0.0069325722850397
361,4.815,0.0359491352336831
362,4.822,0.032768934127878
363,4.830,0.0253529003079251
364,4.838,0.0179324310610464
365,4.845,0.0104543012641322
366,4.853,0.0141490118933312
367,4.860,0.0130046717464724
368,4.868,0.0135280521237179
369,4.875,0.00682168661189447
370,4.883,0.0105563160834258
371,4.890,0.00792167248949513
372,4.898,0.0242351727226212
373,4.905,0.0236230838068595
374,4.913,0.025610155069622
375,4.920,0.0884113649121537
376,4.928,0.057217007342938
377,4.936,0.0218666547442391
378,4.943,0.0175110655030945
379,4.951,0.014339735251141
380,4.958,0.016082858032984
381,4.966,0.0136078898083825
382,4.973,0.0217823816326487
383,4.981,0.00825876493585663
384,4.988,0.0122772617306397
385,4.996,0.02337913532594
386,5.003,0.0185356491229564
387,5.011,0.0183537966189982
388,5.018,0.00929665483649597
389,5.026,0.0162336625484615
390,5.033,0.00510517639160633
391,5.041,0.0216493188248744
392,5.049,0.259902711571639
393,5.056,5.30090734641536
394,5.064,11.5847363475785
395,5.071,2.648850266374
396,5.079,0.379694721983892
397,5.086,0.235698586837498
398,5.094,0.160881805452949
399,5.101,0.119894025231547
400,5.109,0.120985140255296
401,5.116,0.0813368589654881
402,5.124,0.0895468342051609
403,5.131,0.0776199712016601
404,5.139,0.0707317531858784
405,5.147,0.0577847419894416
406,5.154,0.068953146988629
407,5.162,0.0504130624387468
408,5.169,0.056635966415657
409,5.177,0.0543029318526814
410,5.184,0.050803380008218
411,5.192,0.0531852042673775
412,5.199,0.0478937399448872
413,5.207,0.0513489375200925
414,5.214,0.0386547456584267
415,5.222,0.0349689058830793
416,5.229,0.0348314076483792
417,5.237,0.0476852748793741
418,5.244,0.0313629037923965
419,5.252,0.0367608183611062
420,5.260,0.0285863265368399
421,5.267,0.0265903844202258
422,5.275,0.0275484366362006
423,5.282,0.0249004867614925
424,5.290,0.0430990434380875
425,5.297,0.031212099276919
426,5.305,0.0305246081034185
427,5.312,0.0278367393863782
428,5.320,0.0259073286736512
429,5.327,0.0130312843080273
430,5.335,0.0252020957924476
431,5.342,0.0279609313403009
432,5.350,0.0303649327340894
433,5.358,0.0164243859062713
434,5.365,0.0193961219465634
435,5.373,0.0227581755563267
436,5.380,0.0284443928752141
437,5.388,0.0108446188336034
438,5.395,0.00889746641317315
439,5.403,0.0156570570481063
440,5.410,0.0188195164462082
441,5.418,0.0309947633575543
442,5.425,0.0392801408549658
443,5.433,0.129128584091082
444,5.440,0.110442130452648
445,5.448,0.0703769190318137
446,5.455,0.0325338565008101
447,5.463,0.0439728225424719
448,5.471,0.0403535141710116
449,5.478,0.0475699537793031
450,5.486,0.0353148691832924
451,5.493,0.0222481014598587
452,5.501,0.0207844105743417
453,5.508,0.0149340824591994
454,5.516,0.0238892094224081
455,5.523,0.0178880767917883
456,5.531,0.0306088812150089
457,5.538,0.0338689200054786
458,5.546,0.0305512206649734
459,5.553,0.0108446188336034
460,5.561,0.0239646116801468
461,5.568,0.0139139342662633
462,5.576,0.0195247493274119
463,5.584,0.0147123111129089
464,5.591,0.0309282319536672
465,5.599,0.017267117022175
466,5.606,0.0335052149975623
467,5.614,0.0273000527283553
468,5.621,0.0199815983007702
469,5.629,0.0204561889818318
470,5.636,0.0143663478126958
471,5.644,0.0118071064765039
472,5.651,0.0123038742921946
473,5.659,0.0195203139004861
474,5.666,0.0254061254310348
475,5.674,0.0313362912308416
476,5.682,0.0294512347873727
477,5.689,0.0344322192250564
478,5.697,0.0496590398613592
479,5.704,0.0371245233690226
480,5.712,0.0360245374914219
481,5.719,0.0418526884719351
482,5.727,0.0575230518008188
483,5.734,0.0404289164287504
484,5.742,0.0317088670926096
485,5.749,0.022984382329543
486,5.757,0.0245589588882052
487,5.764,0.0589956135401875
488,5.772,0.0656398830750495
489,5.779,0.0463901302170379
490,5.787,0.0295976038759244
491,5.795,0.0229178509256559
492,5.802,0.0175332426377236
493,5.810,0.034441090078908
494,5.817,0.0566004830002505
495,5.825,0.0495925084574721
496,5.832,0.0249670181653797
497,5.840,0.01329297449665
498,5.847,0.0183804091805531
499,5.855,0.0123526639883785
500,5.862,0.0222037471906006
501,5.870,0.0284843117175463
502,5.877,0.0264351444778225
503,5.885,0.0124014536845624
504,5.893,0.0277569017017136
505,5.900,0.0172360690336943
506,5.908,0.00730958357373347
507,5.915,0.0201989342201348
508,5.923,0.00906601263635389
509,5.930,0.0153998022864094
510,5.938,0
511,5.945,0.0176663054454978
512,5.953,0.011456707749365
513,5.960,0.0129558820502885
514,5.968,0.0202477239163188
515,5.975,0.0166239801179327
516,5.983,0.0179457373418238
517,5.990,0.0103123676025063
518,5.998,0.00987769576377697
519,6.006,0.00957165130589614
520,6.013,0.00915472117487008
521,6.021,0.0233303456297561
522,6.028,0.0446115240197884
523,6.036,0.058214978401245
524,6.043,0.0519122367396702
525,6.051,0.029699618695218
526,6.058,0.0160695517522065
527,6.066,0.013572406392976
528,6.073,0.0288036624562046
529,6.081,0.0156082673519224
530,6.088,0.0190856420617568
531,6.096,0.00622290397691023
532,6.104,0.0225275333561847
533,6.111,0.0128849152194756
534,6.119,0.0219731049904585
535,6.126,0.0155993964980708
536,6.134,0.0500316157231272
537,6.141,0.0370092022689515
538,6.149,0.033744728051556
539,6.156,0.0101571276601029
540,6.164,0.0141179639048505
541,6.171,0.0218267359019068
542,6.179,0.0336027943899301
543,6.186,0.0261291000199417
544,6.194,0.0158389095520645
545,6.201,0.0211525510091838
546,6.209,0.016082858032984
547,6.217,0.0141578827471828
548,6.224,0.0193650739580827
549,6.232,0.0156481861942547
550,6.239,0.0156570570481063
551,6.247,0.00959826386745099
552,6.254,0.0220972969443812
553,6.262,0.00162336625484615
554,6.269,0.0201235319623961
555,6.277,0.0270782813820648
556,6.284,0.0144107020819539
557,6.292,0.00889303098624734
558,6.299,0.0213432743669936
559,6.307,0.00966479527133813
560,6.314,0.00934100910575406
561,6.322,0.0405043186864891
562,6.330,0.0665668873025437
563,6.337,0.0413736623639477
564,6.345,0.028630680806098
565,6.352,0.0281649609788881
566,6.360,0.0332612665166428
567,6.367,0.019196527734902
568,6.375,0.017941301914898
569,6.382,0.0262488565469385
570,6.390,0.016592932129452
571,6.397,0.0135191812698663
572,6.405,0.0226517253101073
573,6.412,0.0270960230897681
574,6.420,0.0216759313864293
575,6.428,0.0148542447745348
576,6.435,0.0130800740042112
577,6.443,0.0228424486679171
578,6.450,0.0217779462057229
579,6.458,0.0190279815117212
580,6.465,0.0186642765038049
581,6.473,0.0226783378716622
582,6.480,0.0611467955992049
583,6.488,0.100387017611838
584,6.495,0.0640076459663518
585,6.503,0.0289322898370531
586,6.510,0.0390273215201947
587,6.518,0.042504696230029
588,6.525,0.0522271520514027
589,6.533,0.0426555007455066
590,6.541,0.0436889552192201
591,6.548,0.0295887330220728
592,6.556,0.0393865911011852
593,6.563,0.0311500032999576
594,6.571,0.0312830661077319
595,6.578,0.0211791635707387
596,6.586,0.037417261546126
597,6.593,0.0214186766247324
598,6.601,0.0288480167254627
599,6.608,0.0250025015807862
600,6.616,0.0286617287945787
601,6.623,0.0194404762158215
602,6.631,0.0150538389861962
603,6.639,0.0375636306346777
604,6.646,0.0310036342114059
605,6.654,0.0420123638412642
606,6.661,0.0321036200890066
607,6.669,0.0249049221884184
608,6.676,0.00898173952476352
609,6.684,0.0321790223467454
610,6.691,0.014570377451283
611,6.699,0.018823951873134
612,6.706,0.0306088812150089
613,6.714,0.018336054911295
614,6.721,0.022123909505936
615,6.729,0.0102192236370643
616,6.736,0.0188461290077631
617,6.744,0.0118026710495781
618,6.752,0.0198352292122185
619,6.759,0.0374438741076808
620,6.767,0.0950911178624223
621,6.774,0.195460393766557
622,6.782,0.098910020445544
623,6.789,0.042087766099003
624,6.797,0.0331282037088685
625,6.804,0.0285419722675819
626,6.812,0.0133373287659081
627,6.819,0.0256412030581027
628,6.827,0.0263686130739354
629,6.834,0.0238936448493339
630,6.842,0.0206114289242351
631,6.850,0.0148941636168671
632,6.857,0.0160695517522065
633,6.865,0.0171429250682523
634,6.872,0.0229976886103204
635,6.880,0.0359846186490896
636,6.887,0.0398345692206919
637,6.895,0.863058677504721
638,6.902,8.87761787768015
639,6.910,14.4303909420776
640,6.917,3.10218194618017
641,6.925,0.881323765585203
642,6.932,0.576224053639569
643,6.940,0.414707982136229
644,6.947,0.326420809177998
645,6.955,0.262413163211646
646,6.963,0.231764363154305
647,6.970,0.186057288683842
648,6.978,0.192546318276301
649,6.985,1.03793869033552
650,6.993,5.88636152348754
651,7.000,6.08358721717057
652,7.008,1.61593691474542
653,7.015,0.664666466540204
654,7.023,0.551181633216451
655,7.030,0.490043708471098
656,7.038,0.395036863720266
657,7.045,0.330421564265078
658,7.053,0.289606765693782
659,7.060,0.2601023057833
660,7.068,0.235294962987249
661,7.076,0.215965372444573
662,7.083,0.189406036012828
663,7.091,0.199345827753566
664,7.098,0.168657108853893
665,7.106,0.155803241622898
666,7.113,0.158442320643754
667,7.121,0.140478841594227
668,7.128,0.137604684946303
669,7.136,0.132579346239361
670,7.143,0.138811121070123
671,7.151,0.14981097984613
672,7.158,0.165232959267168
673,7.166,0.163441046789141
674,7.174,0.135156329283256
675,7.181,0.187250418526885
676,7.189,0.879097181268447
677,7.196,2.56477674899529
678,7.204,1.48827202153985
679,7.211,0.418637770392496
680,7.219,0.248911723649483
681,7.226,0.239681600216875
682,7.234,0.277329503963143
683,7.241,0.210922292029928
684,7.249,0.167322045349224
685,7.256,0.150502906446556
686,7.264,0.133457560770671
687,7.271,0.13163903573109
688,7.279,0.110433259598796
689,7.287,0.12284358413721
690,7.294,0.109772380986851
691,7.302,0.0980273704873079
692,7.309,0.0942483867465185
693,7.317,0.0828626458279665
694,7.324,0.0891121623664316
695,7.332,0.0893960296896833
696,7.339,0.0848585879445806
697,7.347,0.0902653733671419
698,7.354,0.0770522365551565
699,7.362,0.086685983838014
