#"+EI TIC Scan TCM-PEEK-2Hour.d "
#Point,X(Minutes),Y(Counts)
0,2.095,0.101064669718995
1,2.102,0.103002806830566
2,2.110,0.0889421321221948
3,2.117,0.0951768131884722
4,2.125,0.0904151163269894
5,2.133,0.0798594095740709
6,2.140,0.101974574089269
7,2.148,0.0774561195557218
8,2.155,0.071804919767244
9,2.163,0.0810386129956378
10,2.170,0.123367527512366
11,2.178,0.12038891679353
12,2.185,0.0868367031757295
13,2.193,0.0762973175774347
14,2.200,0.117149167600713
15,2.208,0.127990494559547
16,2.215,0.0789454249151402
17,2.223,0.0869305498148161
18,2.230,0.107152460393658
19,2.238,0.0840580266010339
20,2.246,0.071666189952942
21,2.253,0.113937980428487
22,2.261,0.110339165833948
23,2.268,0.0681000176676499
24,2.276,0.0626936351985285
25,2.283,0.0549900502161125
26,2.291,0.0673818868642043
27,2.298,0.0526561251049144
28,2.306,0.0655090343711276
29,2.313,0.115064140097527
30,2.321,0.0872447320413235
31,2.328,0.0693893888829271
32,2.336,0.0594865283149591
33,2.343,0.0540515838252461
34,2.351,0.0526683659708822
35,2.359,0.0487186465519317
36,2.366,0.0509464841580753
37,2.374,0.0568996253070927
38,2.381,0.0541372698870209
39,2.389,0.0639340429499344
40,2.396,0.26849931471552
41,2.404,0.315549123207172
42,2.411,0.0856574997541626
43,2.419,0.0663291723909716
44,2.426,0.08666533105218
45,2.434,0.0617347673643824
46,2.441,0.0538965328563204
47,2.449,0.0548472401131546
48,2.457,0.0497958427571
49,2.464,0.150170943693241
50,2.472,0.318221712276813
51,2.479,0.15969025712755
52,2.487,0.136644786798797
53,2.494,0.079027030688259
54,2.502,0.078545556626858
55,2.509,0.0557245021741818
56,2.517,0.0505058129832337
57,2.524,0.0532436866713699
58,2.532,0.0535456280319095
59,2.539,0.051583009188402
60,2.547,0.0606330894272784
61,2.554,0.0467478671311123
62,2.562,0.0634321674452537
63,2.570,0.0442303290303969
64,2.577,0.0612084101277661
65,2.585,0.0561529324830556
66,2.592,0.0603066663348032
67,2.600,0.0481963696039713
68,2.607,0.0533824164856719
69,2.615,0.0623223289308379
70,2.622,0.0542351968147635
71,2.630,0.05255003759986
72,2.637,0.0483922234594564
73,2.645,0.0471191733988029
74,2.652,0.0546595468349813
75,2.660,0.0489553032939762
76,2.668,0.0393462235092359
77,2.675,0.049036909067095
78,2.683,0.0484126249027361
79,2.690,0.052064483249803
80,2.698,0.0519543154560926
81,2.705,0.0513341115803896
82,2.713,0.0547166708761645
83,2.720,0.0973312055988089
84,2.728,0.103235383283955
85,2.735,0.0804959346043976
86,2.743,0.0671697118540954
87,2.750,0.0546513862576694
88,2.758,0.0551736632056298
89,2.765,0.0716947519735336
90,2.773,0.0829073852000586
91,2.781,0.0593886013872165
92,2.788,0.0512973889824862
93,2.796,0.0532640881146496
94,2.803,0.0606126879839987
95,2.811,0.0555816920712239
96,2.818,0.0635015323524047
97,2.826,0.193442404889491
98,2.833,0.195335658825848
99,2.841,0.0769134411644817
100,2.848,0.0505792581790406
101,2.856,0.0576707998630655
102,2.863,0.0564752752868749
103,2.871,0.0573076541726868
104,2.879,0.0515993303430258
105,2.886,0.0484371066346718
106,2.894,0.0619265409312116
107,2.901,0.0566629685650482
108,2.909,0.0582787628728007
109,2.916,0.0691119292543232
110,2.924,0.0643706338361201
111,2.931,0.0538353285264813
112,2.939,0.0451565545552955
113,2.946,0.0609962351176572
114,2.954,0.299440143593518
115,2.961,6.84193818607504
116,2.969,33.5554941698796
117,2.976,72.9052512090915
118,2.984,100
119,2.992,3.11306847091591
120,2.999,0.147881901757258
121,3.007,0.102027617841797
122,3.014,0.0827278524991972
123,3.022,0.068299951811791
124,3.029,0.0678347989050137
125,3.037,0.0968864541353113
126,3.044,0.0945280472921776
127,3.052,0.0723475981584841
128,3.059,0.0782313744003506
129,3.067,0.0727393058694544
130,3.074,0.0647052175059072
131,3.082,0.0574627051416125
132,3.089,0.0686182143269543
133,3.097,0.0683489152756623
134,3.105,0.0544963352887437
135,3.112,0.0652397353198355
136,3.120,0.0720374962206326
137,3.127,0.0880852715044473
138,3.135,0.0858615141869596
139,3.142,0.0523133808578154
140,3.150,0.0421453015272112
141,3.157,0.0615348332202413
142,3.165,0.0643991958567117
143,3.172,0.0612206509937339
144,3.180,0.0588459229959764
145,3.187,0.0587316749136101
146,3.195,0.061555234663521
147,3.203,0.0479841945938623
148,3.210,0.0617918914055656
149,3.218,0.0411048279199464
150,3.225,0.0460093348843871
151,3.233,0.0417576741048969
152,3.240,0.0395583985193448
153,3.248,0.0586990326043626
154,3.255,0.0871957685774522
155,3.263,0.139154164322201
156,3.270,0.0773214700300758
157,3.278,0.0532110443621224
158,3.285,0.0485799167376297
159,3.293,0.047457837357246
160,3.300,0.0517992644871669
161,3.308,0.0517135784253921
162,3.316,0.0669493762666746
163,3.323,0.0474292753366544
164,3.331,0.0389708369528894
165,3.338,0.0394196687050429
166,3.346,0.0362166421101294
167,3.353,0.036453298852174
168,3.361,0.031434543805367
169,3.368,0.0388443480045552
170,3.376,0.0365512257799166
171,3.383,0.0364981820273893
172,3.391,0.0307572158884808
173,3.398,0.0483269388409614
174,3.406,0.0402398067248869
175,3.414,0.0339684030607061
176,3.421,0.0348660665650131
177,3.429,0.0351802487915205
178,3.436,0.0344743588540428
179,3.444,0.0466009767394985
180,3.451,0.239545586412965
181,3.459,0.490891367618911
182,3.466,0.243062795234386
183,3.474,0.0638524371768156
184,3.481,0.0721068611277836
185,3.489,0.0975801032068213
186,3.496,0.0693159436871202
187,3.504,0.0503956451895233
188,3.511,0.0352210516780799
189,3.519,0.0340377679678571
190,3.527,0.0361880800895379
191,3.534,0.0314957481352061
192,3.542,0.0346824535754957
193,3.549,0.069120089831635
194,3.557,0.113872695809992
195,3.564,0.0688018273164717
196,3.572,0.043740694391684
197,3.579,0.0413251635073672
198,3.587,0.0457196343898153
199,3.594,0.0379548450775602
200,3.602,0.0394727124575701
201,3.609,0.0352659348532953
202,3.617,0.029573932178258
203,3.625,0.0319649813306393
204,3.632,0.0400725148899934
205,3.640,0.0370245392640057
206,3.647,0.0396767268903671
207,3.655,0.0396604057357434
208,3.662,0.0373142397585775
209,3.670,0.0314427043826788
210,3.677,0.0304185519300377
211,3.685,0.0366205906870676
212,3.692,0.0296351365080971
213,3.700,0.0393462235092359
214,3.707,0.0457604372763747
215,3.715,0.0461439844100331
216,3.722,0.0397012086223028
217,3.730,0.0294229614979882
218,3.738,0.0336827828547903
219,3.745,0.0381915018196047
220,3.753,0.0382894287473473
221,3.760,0.0251100963886589
222,3.768,0.0353026574511987
223,3.775,0.0356658031415774
224,3.783,0.0358983795949661
225,3.790,0.0335032501539289
226,3.798,0.0249795271516688
227,3.805,0.0301043697035303
228,3.813,0.0256364536252753
229,3.820,0.0302961432703595
230,3.828,0.0367021964601864
231,3.836,0.0263097012535055
232,3.843,0.0299085158480452
233,3.851,0.0369510940681988
234,3.858,0.0239635352763396
235,3.866,0.0248163156054312
236,3.873,0.0406192735698894
237,3.881,0.0342581035552779
238,3.888,0.0319976236398868
239,3.896,0.0292352682198149
240,3.903,0.0282886412516367
241,3.911,0.0395828802512805
242,3.918,0.0390483624373523
243,3.926,0.0337970309371566
244,3.933,0.0372367142741146
245,3.941,0.027101277252758
246,3.949,0.0288272393542209
247,3.956,0.0327647179072036
248,3.964,0.0444629054837855
249,3.971,0.0745060708574767
250,3.979,0.0457930795856222
251,3.986,0.0241104256679535
252,3.994,0.0348783074309809
253,4.001,0.0271992041805005
254,4.009,0.0362125618214735
255,4.016,0.0265708397274857
256,4.024,0.027578671025503
257,4.031,0.0295372095803546
258,4.039,0.030194136053961
259,4.046,0.0366940358828745
260,4.054,0.0311774856200427
261,4.062,0.0357229271827606
262,4.069,0.0291332610034164
263,4.077,0.0272032844691565
264,4.084,0.0271788027372208
265,4.092,0.0375427359233102
266,4.099,0.0487553691498351
267,4.107,0.0372938383152978
268,4.114,0.0239227323897802
269,4.122,0.0218213837319707
270,4.129,0.0254895632336614
271,4.137,0.0227068063703099
272,4.144,0.0316507991041318
273,4.152,0.0259791978723743
274,4.160,0.038587289819231
275,4.167,0.033841914112372
276,4.175,0.0253916363059188
277,4.182,0.0348538256990453
278,4.190,0.0333726809169388
279,4.197,0.0305123985691244
280,4.205,0.0228496164732678
281,4.212,0.0296024941988496
282,4.220,0.027305291685555
283,4.227,0.0292352682198149
284,4.235,0.0152235569753147
285,4.242,0.0361595180689463
286,4.250,0.264949463584852
287,4.257,0.921227171295006
288,4.265,0.575863378878875
289,4.273,0.111677500513096
290,4.280,0.0437488549689959
291,4.288,0.0393462235092359
292,4.295,0.0271502407166293
293,4.303,0.0259179935425352
294,4.310,0.0314467846713348
295,4.318,0.0281825537465822
296,4.325,0.0289251662819634
297,4.333,0.031911937578112
298,4.340,0.0393788658184835
299,4.348,0.024967286285701
300,4.355,0.0275664301595352
301,4.363,0.0165822930977429
302,4.371,0.0303777490434783
303,4.378,0.0349313511835081
304,4.386,0.0292189470651912
305,4.393,0.0378446772838498
306,4.401,0.0314508649599907
307,4.408,0.0470171661824044
308,4.416,0.100758648069799
309,4.423,0.101468618295933
310,4.431,0.0521868919094812
311,4.438,0.0361921603781938
312,4.446,0.0339480016174264
313,4.453,0.0338786367102754
314,4.461,0.0408804120438696
315,4.468,0.0281376705713669
316,4.476,0.0305491211670278
317,4.484,0.034592687225065
318,4.491,0.0386199321284785
319,4.499,0.039892982189132
320,4.506,0.0396644860243993
321,4.514,0.0301206908581541
322,4.521,0.0183531383744212
323,4.529,0.0327198347319883
324,4.536,0.0293250345702456
325,4.544,0.0331972285047333
326,4.551,0.0295412898690105
327,4.559,0.0294882461164833
328,4.566,0.0314059817847754
329,4.574,0.0215602452579905
330,4.582,0.0358453358424388
331,4.589,0.0281172691280872
332,4.597,0.0257384608416738
333,4.604,0.0345886069364091
334,4.612,0.0277459628603966
335,4.619,0.0281131888394313
336,4.627,0.0375060133254067
337,4.634,0.0223722227005227
338,4.642,0.0181205619210325
339,4.649,0.0311162812902036
340,4.657,0.0272114450464684
341,4.664,0.0227027260816539
342,4.672,0.0252080233164015
343,4.679,0.0291863047559437
344,4.687,0.0304348730846615
345,4.695,0.0188386927244781
346,4.702,0.0242613963482233
347,4.710,0.0309041062800947
348,4.717,0.0448954160813153
349,4.725,0.0234779809262826
350,4.732,0.0253549137080154
351,4.740,0.0247224689663446
352,4.747,0.0194058528476539
353,4.755,0.0266402046346367
354,4.762,0.025032570904196
355,4.770,0.0263668252946886
356,4.777,0.028610984055456
357,4.785,0.0226741640610623
358,4.792,0.0254283589038223
359,4.800,0.0189080576316291
360,4.808,0.0241145059566094
361,4.815,0.0266034820367332
362,4.823,0.0204912096301341
363,4.830,0.0205279322280375
364,4.838,0.0312305293725699
365,4.845,0.0383587936544983
366,4.853,0.0287007504058867
367,4.860,0.0252365853369931
368,4.868,0.0225680765560079
369,4.875,0.0287089109831986
370,4.883,0.0213766322684732
371,4.890,0.0279989407570649
372,4.898,0.0232086818749906
373,4.906,0.0245143742448916
374,4.913,0.0200995019191638
375,4.921,0.0150073016765498
376,4.928,0.0224538284736415
377,4.936,0.023110754947248
378,4.943,0.0210624500419658
379,4.951,0.0208461947432009
380,4.958,0.0208013115679856
381,4.966,0.0150929877383246
382,4.973,0.019393611981686
383,4.981,0.0263464238514089
384,4.988,0.0217765005567554
385,4.996,0.0200913413418519
386,5.003,0.0235351049674658
387,5.011,0.0255058843882852
388,5.019,0.0231229958132158
389,5.026,0.0248938410898941
390,5.034,0.0208665961864806
391,5.041,0.0214459971756242
392,5.049,0.0192997653425994
393,5.056,0.0315651130423571
394,5.064,0.0244123670284931
395,5.071,0.0242573160595673
396,5.079,0.0158682425829533
397,5.086,0.0207319466608346
398,5.094,0.0259424752744708
399,5.101,0.0127386611838468
400,5.109,0.0206870634856192
401,5.117,0.0154806151606389
402,5.124,0.0265749200161416
403,5.132,0.0201443850943791
404,5.139,0.0151174694702602
405,5.147,0.0172351392826934
406,5.154,0.0253426728420475
407,5.162,0.0257588622849535
408,5.169,0.0210624500419658
409,5.177,0.0210134865780945
410,5.184,0.0185775542504979
411,5.192,0.0209033187843841
412,5.199,0.0162640305825795
413,5.207,0.0231433972564955
414,5.214,0.0186714008895845
415,5.222,0.010869888979426
416,5.230,0.0129222741733641
417,5.237,0.0227720909888049
418,5.245,0.0159090454695127
419,5.252,0.0127386611838468
420,5.260,0.0160314541291909
421,5.267,0.0210175668667504
422,5.275,0.0206952240629311
423,5.282,0.0145951925222998
424,5.290,0.0188876561883494
425,5.297,0.0260771248001169
426,5.305,0.0148644915735919
427,5.312,0.0118246765249161
428,5.320,0.0213562308251935
429,5.328,0.0096702841145794
430,5.335,0.0249264833991416
431,5.343,0.0212338221655153
432,5.350,0.0154520531400473
433,5.358,0.0226578429064386
434,5.365,0.0144646232853097
435,5.373,0.0200097355687331
436,5.380,0.018018554704634
437,5.388,0.016435402706129
438,5.395,0.0244858122243
439,5.403,0.0159865709539756
440,5.410,0.0114900928551289
441,5.418,0.016578212809087
442,5.425,0.0112167135151809
443,5.433,0.0155622209337577
444,5.441,0.0131262886061612
445,5.448,0.0190304662913073
446,5.456,0.0232617256275178
447,5.463,0.0145911122336439
448,5.471,0.023388214575852
449,5.478,0.0260812050887728
450,5.486,0.0282886412516367
451,5.493,0.0201199033624435
452,5.501,0.0205605745372851
453,5.508,0.0195649841052355
454,5.516,0.0265014748203347
455,5.523,0.015884563737577
456,5.531,0.0141790030793938
457,5.538,0.0155785420883815
458,5.546,0.0141504410588023
459,5.554,0.0189406999408766
460,5.561,0.0190100648480276
461,5.569,0.0211603769697083
462,5.576,0.0171780152415102
463,5.584,0.020287195197337
464,5.591,0.0206544211763717
465,5.599,0.0199118086409905
466,5.606,0.0231311563905277
467,5.614,0.0153214839030572
468,5.621,0.0179043066222677
469,5.629,0.0247999944508074
470,5.636,0.0183735398177009
471,5.644,0.0106699548352849
472,5.652,0.0126692962766958
473,5.659,0.0220702813399831
474,5.667,0.00946218939312643
475,5.674,0.0222416534635326
476,5.682,0.0263097012535055
477,5.689,0.0175738032411365
478,5.697,0.0228210544526762
479,5.704,0.0202423120221217
480,5.712,0.0140647549970275
481,5.719,0.0136689669974013
482,5.727,0.0155989435316612
483,5.734,0.021250143320139
484,5.742,0.0184061821269484
485,5.749,0.023934973255748
486,5.757,0.0225150328034806
487,5.765,0.0155091771812305
488,5.772,0.0193487288064707
489,5.780,0.00609595125197537
490,5.787,0.0291087792714808
491,5.795,0.0225395145354163
492,5.802,0.0154642940060152
493,5.810,0.0205850562692207
494,5.817,0.0128365881115894
495,5.825,0.0190671888892108
496,5.832,0.0246735055024733
497,5.840,0.0225966385765995
498,5.847,0.018430663858884
499,5.855,0.0244613304923644
500,5.863,0.0240900242246737
501,5.870,0.0162558700052677
502,5.878,0.0276602767986218
503,5.885,0.0184102624156043
504,5.893,0.0202708740427133
505,5.900,0.0163864392422578
506,5.908,0.0149991410992379
507,5.915,0.0201688668263148
508,5.923,0.0187938095492628
509,5.930,0.0164721253040325
510,5.938,0.0151256300475721
511,5.945,0.0123510337615324
512,5.953,0.0189366196522207
513,5.960,0.0209604428255672
514,5.968,0.0131548506267527
515,5.976,0.0169984825406489
516,5.983,0.0151011483156364
517,5.991,0.0204789687641663
518,5.998,0.00695281186972291
519,6.006,0.0165129281905919
520,6.013,0.00987021825872049
521,6.021,0.0201076624964757
522,6.028,0.0260363219135574
523,6.036,0.0146441559861711
524,6.043,0.0165006873246241
525,6.051,0.0158968046035449
526,6.058,0.0104128966499606
527,6.066,0.0212991067840103
528,6.074,0.0212338221655153
529,6.081,0.0232698862048297
530,6.089,0.0194099331363098
531,6.096,0.012999799657827
532,6.104,0.0181613648075919
533,6.111,0.0197241153628172
534,6.119,0.0257833440168891
535,6.126,0.0102088822171636
536,6.134,0.0138525799869186
537,6.141,0.0123632746275002
538,6.149,0.0178512628697405
539,6.156,0.0142157256772973
540,6.164,0.0114982534324408
541,6.171,0.0158968046035449
542,6.179,0.0174758763133939
543,6.187,0.0150073016765498
544,6.194,0.0122612674111017
545,6.202,0.0206421803104039
546,6.209,0.0160477752838147
547,6.217,0.0146645574294508
548,6.224,0.0126937780086314
549,6.232,0.0210910120625574
550,6.239,0.0127631429157824
551,6.247,0.0144768641512775
552,6.254,0.0230903535039683
553,6.262,0.021046128887342
554,6.269,0.0281213494167431
555,6.277,0.00563487863385407
556,6.285,0.0147584040685374
557,6.292,0.0125713693489532
558,6.300,0.00987837883603238
559,6.307,0.0200791004758841
560,6.315,0.0227557698341811
561,6.322,0.0102619259696908
562,6.330,0.0145217473264929
563,6.337,0.0162640305825795
564,6.345,0.00723435178698282
565,6.352,0.00998038605243089
566,6.360,0.0134486314099805
567,6.367,0.0189325393635647
568,6.375,0.0184510653021637
569,6.382,0.0195609038165796
570,6.390,0.0151460314908518
571,6.398,0.0114003265046982
572,6.405,0.0246612646365054
573,6.413,0.010727078876468
574,6.420,0.0187856489719509
575,6.428,0.0123428731842205
576,6.435,0.0154846954492949
577,6.443,0.0168883147469385
578,6.450,0.0260444824908693
579,6.458,0.0496979158293574
580,6.465,0.0502569153752213
581,6.473,0.0425247683722137
582,6.480,0.037554976789278
583,6.488,0.0262280954803867
584,6.495,0.029231187931159
585,6.503,0.0293331951475575
586,6.511,0.0255548478521565
587,6.518,0.0283661667360996
588,6.526,0.0214092745777207
589,6.533,0.0245429362654832
590,6.541,0.0221722885563816
591,6.548,0.0239594549876836
592,6.556,0.028610984055456
593,6.563,0.0336093376589833
594,6.571,0.0197649182493766
595,6.578,0.0271257589846936
596,6.586,0.0185775542504979
597,6.593,0.0327279953093002
598,6.601,0.01444422184203
599,6.609,0.020217830290186
600,6.616,0.0179206277768914
601,6.624,0.0278765320973867
602,6.631,0.0226088794425673
603,6.639,0.0220498798967034
604,6.646,0.0204055235683593
605,6.654,0.0265626791501738
606,6.661,0.0145421487697726
607,6.669,0.0158396805623617
608,6.676,0.0199770932594855
609,6.684,0.01362000353353
610,6.691,0.0250488920588198
611,6.699,0.0168842344582825
612,6.706,0.0228659376278915
613,6.714,0.0259179935425352
614,6.722,0.0136526458427775
615,6.729,0.0219845952782084
616,6.737,0.0218295443092826
617,6.744,0.011759391906421
618,6.752,0.00755669459080213
619,6.759,0.0209400413822875
620,6.767,0.0262933800988817
621,6.774,0.0207074649288989
622,6.782,0.0272318464897481
623,6.789,0.0206095380011564
624,6.797,0
625,6.804,0.025583409872748
626,6.812,0.0222661351954683
627,6.820,0.0192630427446959
628,6.827,0.0173249056331241
629,6.835,0.0153949290988642
630,6.842,0.0171494532209187
631,6.850,0.0219029895050895
632,6.857,0.0142442876978889
633,6.865,0.0115512971849681
634,6.872,0.0270645546548545
635,6.880,0.0130569236990102
636,6.887,0.00973148844441851
637,6.895,0.0139994703785325
638,6.902,0.0179043066222677
639,6.910,0.0208625158978247
640,6.917,0.0264402704904956
641,6.925,0.0221722885563816
642,6.933,0.0183694595290449
643,6.940,0.0217724202680994
644,6.948,0.0200668596099162
645,6.955,0.01732898592178
646,6.963,0.0142238862546092
647,6.970,0.0245837391520426
648,6.978,0.0155663012224137
649,6.985,0.0177084527667825
650,6.993,0.0233759737098841
651,7.000,0.0219845952782084
652,7.008,0.0279377364272258
653,7.015,0.0278234883448595
654,7.023,0.0217928217113791
655,7.031,0.0253345122647357
656,7.038,0.0295494504463224
657,7.046,0.0279295758499139
658,7.053,0.0153786079442404
659,7.061,0.0266524455006045
660,7.068,0.0218785077731539
661,7.076,0.0160151329745672
662,7.083,0.0233555722666044
663,7.091,0.0136077626675622
664,7.098,0.0230495506174089
665,7.106,0.0109229327319532
666,7.113,0.0221274053811663
667,7.121,0.0167944681078518
668,7.128,0.0175778835297924
669,7.136,0.0217765005567554
670,7.144,0.0224171058757381
671,7.151,0.0203851221250796
672,7.159,0.0174350734268345
673,7.166,0.0289822903231466
674,7.174,0.0200668596099162
675,7.181,0.01609265845903
676,7.189,0.0155744617997256
677,7.196,0.0228455361846118
678,7.204,0.0144115795327825
679,7.211,0.020564654825941
680,7.219,0.0304797562598768
681,7.226,0.0206095380011564
682,7.234,0.0198383634451836
683,7.241,0.0415781414040355
684,7.249,0.032874885700914
685,7.257,0.0316222370835402
686,7.264,0.0230209885968173
687,7.272,0.0238125645960698
688,7.279,0.0194344148682454
689,7.287,0.0263178618308174
690,7.294,0.0236452727611762
691,7.302,0.0185530725185623
692,7.309,0.0236942362250475
693,7.317,0.0212215812995475
694,7.324,0.0219927558555202
