#"+EI TIC Scan TOL-TPU.d "
#Point,X(Minutes),Y(Counts)
0,2.095,0.0659887495047573
1,2.102,0.0561735665307155
2,2.110,0.0711875050610856
3,2.117,0.0709300991447414
4,2.125,0.0574183984212325
5,2.132,0.0683644795195405
6,2.140,0.0573508821153061
7,2.147,0.0580724626348939
8,2.155,0.0614567174694517
9,2.163,0.0530340583051407
10,2.170,0.064089853400579
11,2.178,0.0583889453189236
12,2.185,0.0519706764868008
13,2.193,0.0579500893304024
14,2.200,0.0624399236745041
15,2.208,0.051270194812815
16,2.215,0.0434003254032759
17,2.223,0.0549498334858006
18,2.230,0.0879864059293833
19,2.238,0.0995148151663059
20,2.245,0.0781374648023783
21,2.253,0.0566293015957183
22,2.260,0.0450924528205549
23,2.268,0.0615368930827392
24,2.276,0.063376712419232
25,2.283,0.0588109222309632
26,2.291,0.0670310324774952
27,2.298,0.0439109174668439
28,2.306,0.0499451873090106
29,2.313,0.0491054532540517
30,2.321,0.0426998437292902
31,2.328,0.0345683486342865
32,2.336,0.0368807821122637
33,2.343,0.0658959145841086
34,2.351,0.0947295969837765
35,2.358,0.0656638272824868
36,2.366,0.0681155131414371
37,2.374,0.0575829694169279
38,2.381,0.0448266073659699
39,2.389,0.0548274601813091
40,2.396,0.035319467537717
41,2.404,0.0337708122705316
42,2.411,0.0516584135718915
43,2.419,0.0670479115539768
44,2.426,0.0491645300217373
45,2.434,0.0614946953915353
46,2.441,0.290767411010027
47,2.449,0.316208399036897
48,2.456,0.0766605456102396
49,2.464,0.0453793971207418
50,2.471,0.0466579871642219
51,2.479,0.0404338277116373
52,2.487,0.0341590310296081
53,2.494,0.0483965320418252
54,2.502,0.0426112285777618
55,2.509,0.0680648759119923
56,2.517,0.0781416845714987
57,2.524,0.0711368678316408
58,2.532,0.0802051516713725
59,2.539,0.0415773851432647
60,2.547,0.0289349568585574
61,2.554,0.0324964419961719
62,2.562,0.0423200645084545
63,2.569,0.0384505362250511
64,2.577,0.0404760254028413
65,2.585,0.039876818187745
66,2.592,0.0443497734553651
67,2.600,0.0405646405543696
68,2.607,0.0421217353597959
69,2.615,0.0491434311761353
70,2.622,0.0414296932240509
71,2.630,0.0423749215070196
72,2.637,0.0541185389690826
73,2.645,0.0528230698491209
74,2.652,0.0461727137153763
75,2.660,0.0445396630657829
76,2.667,0.0332138027466393
77,2.675,0.041463451377014
78,2.682,0.0311039181864411
79,2.690,0.0395350168889929
80,2.698,0.043826522084436
81,2.705,0.0420753178994715
82,2.713,0.037129748490367
83,2.720,0.026630962918821
84,2.728,0.0324458047667271
85,2.735,0.035116918619938
86,2.743,0.0348637324727142
87,2.750,0.0488396077994668
88,2.758,0.0700439476294582
89,2.765,0.0399569938010326
90,2.773,0.0489155636436339
91,2.780,0.0503671642210502
92,2.788,0.0374335718670356
93,2.796,0.0757321964037524
94,2.803,0.0622247154493638
95,2.811,0.0439193570050847
96,2.818,0.0456790007282899
97,2.826,0.0449996178999061
98,2.833,0.0575323321874832
99,2.841,0.0325302001491351
100,2.848,0.0344544148680358
101,2.856,0.0314246206395912
102,2.863,0.0422019109730834
103,2.871,0.0498903303104455
104,2.878,0.042666085576327
105,2.886,0.0395054785051502
106,2.893,0.037129748490367
107,2.901,0.0437294673946669
108,2.909,0.0534180572950968
109,2.916,0.0541902750441293
110,2.924,0.0527555535431945
111,2.931,0.0489408822583563
112,2.939,0.0536923422879225
113,2.946,0.049907209386927
114,2.954,0.0563085991425682
115,2.961,0.0398894774951062
116,2.969,0.0890202493638804
117,2.976,2.47440509589446
118,2.984,23.2757443155807
119,2.991,66.7814837712532
120,2.999,100
121,3.007,16.160496217842
122,3.014,0.162722736820722
123,3.022,0.097151744458884
124,3.029,0.0863449157415491
125,3.037,0.0721960298808603
126,3.044,0.0538948912057015
127,3.052,0.0566082027501164
128,3.059,0.0983670379655582
129,3.067,0.0730864011652639
130,3.074,0.0695882125644554
131,3.082,0.0701874197795517
132,3.089,0.0577855183347069
133,3.097,0.0454300343501866
134,3.104,0.0641700290138665
135,3.112,0.057540771725724
136,3.120,0.0502194723018364
137,3.127,0.0612288499369503
138,3.135,0.0838805705752377
139,3.142,0.0879357686999385
140,3.150,0.0738501793760556
141,3.157,0.0498270337736395
142,3.165,0.0478015445958493
143,3.172,0.0631488448867306
144,3.180,0.0664613636462417
145,3.187,0.0458140333401426
146,3.195,0.0561440281468728
147,3.202,0.0523968731679609
148,3.210,0.0312600496438958
149,3.217,0.0400582682599221
150,3.225,0.0428981728779488
151,3.233,0.0444004106848099
152,3.240,0.0314921369455176
153,3.248,0.0194784542597493
154,3.255,0.0293147360793931
155,3.263,0.0498270337736395
156,3.270,0.0559667978438161
157,3.278,0.0471390408439471
158,3.285,0.0441092466155025
159,3.293,0.0336990761954849
160,3.300,0.0386235467589873
161,3.308,0.0523842138605997
162,3.315,0.0590050316105015
163,3.323,0.0546417903400117
164,3.331,0.0399780926466345
165,3.338,0.0328762212170076
166,3.346,0.02917548369842
167,3.353,0.0238712339140819
168,3.361,0.0255422624857588
169,3.368,0.0230568184738454
170,3.376,0.0239092118361654
171,3.383,0.0304076562815757
172,3.391,0.0250021320383481
173,3.398,0.0226432811000465
174,3.406,0.0199299695556317
175,3.413,0.0190691366550709
176,3.421,0.0256055590225647
177,3.428,0.0217655691230041
178,3.436,0.0175626790790894
179,3.444,0.0209089559915637
180,3.451,0.0363322121266121
181,3.459,0.150076088766894
182,3.466,0.248050688204256
183,3.474,0.0913115839962555
184,3.481,0.0382986245367168
185,3.489,0.06974434402191
186,3.496,0.0899148404174044
187,3.504,0.041687099140395
188,3.511,0.0228838079399091
189,3.519,0.0269896432940547
190,3.526,0.0189931808109037
191,3.534,0.00829184632157873
192,3.542,0.0181872049089081
193,3.549,0.0136340740280004
194,3.557,0.0306059854302344
195,3.564,0.0367162111165682
196,3.572,0.0191282134227564
197,3.579,0.00941430490760414
198,3.587,0.0233944000034771
199,3.594,0.0222044251115253
200,3.602,0.0248375610426526
201,3.609,0.00983628181964378
202,3.617,0.00747321111222185
203,3.624,0.0113849370868292
204,3.632,0.0185416655150213
205,3.639,0.0259009428609925
206,3.647,0.0258840637845109
207,3.655,0.0102160610404794
208,3.662,0.0119925838401663
209,3.670,0.0151574106804635
210,3.677,0.00637607114091881
211,3.685,0.0117858151532669
212,3.692,0.0205122976942464
213,3.700,0.0209300548371656
214,3.707,0.00839312078046824
215,3.715,0.029846426988563
216,3.722,0.0146805767698587
217,3.730,0.0165963519505186
218,3.737,0.0282471344919328
219,3.745,0.0190438180403485
220,3.753,0.0208836373768413
221,3.760,0.018676698126874
222,3.768,0.0202506720087818
223,3.775,0.0220103157319871
224,3.783,0.010988278789512
225,3.790,0.013650953104482
226,3.798,0.0206515500752195
227,3.805,0.00979408412843981
228,3.813,0.011456673161876
229,3.820,0.0187357748945596
230,3.828,0.0163347262650541
231,3.835,0.0112456847058561
232,3.843,0.0162798692664889
233,3.850,0.0141151277077256
234,3.858,0.0103088959611282
235,3.866,0.0133682285734155
236,3.873,0.00807241832731812
237,3.881,0.00949026075177128
238,3.888,0.0145919616183304
239,3.896,0.0233353232357915
240,3.903,0.0090092070720461
241,3.911,0.00898810822644412
242,3.918,0.00779391356537197
243,3.926,0.00650688398365109
244,3.933,0.0169043950963076
245,3.941,0.0101612040419143
246,3.948,0.0100894679668676
247,3.956,0.0110009380968732
248,3.963,0.0296818559928676
249,3.971,0.079635482840119
250,3.979,0.0518905008735133
251,3.986,0.0158832109691717
252,3.994,0.00236307070742193
253,4.001,0.0178960408396007
254,4.009,0.00921597575894552
255,4.016,0.00826652770685635
256,4.024,0.0169212741727892
257,4.031,0.00911048153093561
258,4.039,0.00930881067959424
259,4.046,0.0193138832640539
260,4.054,0.0100472702756636
261,4.061,0.0100219516609412
262,4.069,0.0150856746054168
263,4.077,0.0248249017352914
264,4.084,0.0203730453132733
265,4.092,0.0265170291525703
266,4.099,0.0155203108248176
267,4.107,0.0164064623401008
268,4.114,0.0188665877372919
269,4.122,0.0150730152980556
270,4.129,0.0145582034653672
271,4.137,0.0175542395408486
272,4.144,0.0124736375198915
273,4.152,0.0182631607530752
274,4.159,0.00773905656680681
275,4.167,0.0182167432927508
276,4.174,0.0161068587325527
277,4.182,0.0101316656580715
278,4.190,0.0195544101039165
279,4.197,0.0159676063515796
280,4.205,0.00959575497978119
281,4.212,0.0116085848502102
282,4.220,0.00657018052045704
283,4.227,0.00574732554197976
284,4.235,0.00910626176181522
285,4.242,0.00909360245445403
286,4.250,0.139125787899466
287,4.257,0.474340027054628
288,4.265,0.317600922846627
289,4.272,0.0482319610461297
290,4.280,0.0243607271320478
291,4.288,0.0143556545475882
292,4.295,0.0179973152984902
293,4.303,0.0133091518057299
294,4.310,0.0197907171746586
295,4.318,0.00858301039088607
296,4.325,0.0101190063507103
297,4.333,0.00693730043393152
298,4.340,0.0129546911996166
299,4.348,0.0142290614739763
300,4.355,0.0233479825431527
301,4.363,0.0120685396843334
302,4.370,0.00709343189138618
303,4.378,0.00134188658028602
304,4.385,0.0201747161646147
305,4.393,0.0169254939419096
306,4.401,0.0119208477651195
307,4.408,0.0351633360802624
308,4.416,0.111005246481145
309,4.423,0.126306129311702
310,4.431,0.0381804710013457
311,4.438,0.0219259203495792
312,4.446,0.0176090965394138
313,4.453,0.0070681132766638
314,4.461,0.00997131443149646
315,4.468,0.0124694177507711
316,4.476,0.00938054675464097
317,4.483,0.0130053284290614
318,4.491,0.0037640340553935
319,4.499,0.0118280128444708
320,4.506,0.0216727342023554
321,4.514,0.00636341183355762
322,4.521,0.0162418913444054
323,4.529,0.00767154026088047
324,4.536,0.0113258603191437
325,4.544,0.0174571848510795
326,4.551,0.0149506419935641
327,4.559,0.0175120418496446
328,4.566,0.0125833515170218
329,4.574,0.00667989451758734
330,4.581,0.00302135469020375
331,4.589,0.00665457590286497
332,4.596,0.0194657949523881
333,4.604,0.0075238483416666
334,4.612,0.00804287994347535
335,4.619,0.0163389460341745
336,4.627,0.0130475261202654
337,4.634,0.0212296584447138
338,4.642,0.00795426479194703
339,4.649,0.00814415440236486
340,4.657,0.0179719966837678
341,4.664,0.0167609229462141
342,4.672,0.00492025079438209
343,4.679,0.0140729300165217
344,4.687,0.0131361412717937
345,4.694,0.00848173593199656
346,4.702,0.00949448052089167
347,4.710,0.00784033102569633
348,4.717,0.00757026580199096
349,4.725,0.0213773503639277
350,4.732,0.0174318662363571
351,4.740,0.013958996250271
352,4.747,0.0141488858606888
353,4.755,0.00140940288621236
354,4.762,0.00657018052045704
355,4.770,0.0101991819639979
356,4.777,0.00589079769207324
357,4.785,0.00963795267098515
358,4.792,0.00643936767772475
359,4.800,0.0115030906222003
360,4.807,0.0214617457463356
361,4.815,0.0131994378085996
362,4.823,0.0153388607526405
363,4.830,0.010254038962563
364,4.838,0.0127690213583192
365,4.845,0.0183222375207607
366,4.853,0.0144611487755981
367,4.860,0.0166765275638062
368,4.868,0.012085418760815
369,4.875,0.0154865526718544
370,4.883,0.0116001453119694
371,4.890,0.00324078268446436
372,4.898,0.0123428246771592
373,4.905,0.00576420461846135
374,4.913,0.0204152430044773
375,4.920,0.0293105163102727
376,4.928,0.0301924480564355
377,4.936,0.0206346709987379
378,4.943,0.0139843148649933
379,4.951,0.0203561662367918
380,4.958,0.0408262662398342
381,4.966,0.0332095829775189
382,4.973,0.0158114748941249
383,4.981,0.0129546911996166
384,4.988,0.0134863821087866
385,4.996,0.00862942785121043
386,5.003,0.0137859857163347
387,5.011,0.0126761864376705
388,5.018,0.02278675325014
389,5.026,0.00329141991390911
390,5.034,0.0178833815322395
391,5.041,0.018069051373537
392,5.049,0.206418446062426
393,5.056,2.02505876133994
394,5.064,2.0759660560084
395,5.071,0.390054358643832
396,5.079,0.149582375779808
397,5.086,0.0964006255554535
398,5.094,0.0790236163176615
399,5.101,0.0742468376733729
400,5.109,0.0636805357959006
401,5.116,0.0479703353606651
402,5.124,0.0530129594595387
403,5.131,0.0428601949558652
404,5.139,0.0409233209296033
405,5.147,0.0419613841332208
406,5.154,0.0433454684047108
407,5.162,0.0323614093843192
408,5.169,0.0285720567142033
409,5.177,0.0286691114039725
410,5.184,0.028707089326056
411,5.192,0.0426745251145678
412,5.199,0.0314414997160728
413,5.207,0.0290573301630489
414,5.214,0.0325977164550614
415,5.222,0.0255591415622404
416,5.229,0.026715358301229
417,5.237,0.0313993020248689
418,5.245,0.0277112238136425
419,5.252,0.03055956796991
420,5.260,0.0159802656589408
421,5.267,0.0228669288634275
422,5.275,0.0259684591669188
423,5.282,0.0245337376659841
424,5.290,0.0190311587329873
425,5.297,0.0246983086616795
426,5.305,0.0105114448789072
427,5.312,0.0165879124122779
428,5.320,0.0122246711417881
429,5.327,0.0238754536832023
430,5.335,0.0153135421379182
431,5.342,0
432,5.350,0.0166132310270002
433,5.358,0.0201578370881331
434,5.365,0.0200776614748456
435,5.373,0.015992924966302
436,5.380,0.022094711114395
437,5.388,0.0126255492082257
438,5.395,0.0113638382412272
439,5.403,0.0162418913444054
440,5.410,0.0101569842727939
441,5.418,0.00897966868820333
442,5.425,0.0172672952406617
443,5.433,0.0334163516644183
444,5.440,0.0340999542619225
445,5.448,0.0232298290077816
446,5.456,0.0220356343467095
447,5.463,0.0229260056311131
448,5.471,0.0372858799478217
449,5.478,0.0366402552724011
450,5.486,0.02140266897865
451,5.493,0.0226475008691669
452,5.501,0.0215841190508271
453,5.508,0.0221453483438398
454,5.516,0.0183644352119647
455,5.523,0.0248164621970506
456,5.531,0.0250485494986724
457,5.538,0.0175753383864506
458,5.546,0.0111528497852074
459,5.553,0.0181492269868245
460,5.561,0.0178369640719152
461,5.569,0.016663868256445
462,5.576,0.0151869490643063
463,5.584,0.0133640088042951
464,5.591,0.0144358301608757
465,5.599,0.0182336223692324
466,5.606,0.0138703810987426
467,5.614,0.0174782836966815
468,5.621,0.00787830894777989
469,5.629,0.0134568437249438
470,5.636,0.00981518297404179
471,5.644,0.0150941141436576
472,5.651,0.0226010834088426
473,5.659,0.016621670565241
474,5.666,0.0106675763363618
475,5.674,0.0170394277081603
476,5.682,0.0247067481999203
477,5.689,0.0184699294399746
478,5.697,0.0244873202056597
479,5.704,0.0164781984151476
480,5.712,0.0118026942297485
481,5.719,0.0255507020239996
482,5.727,0.0204954186177648
483,5.734,0.028728188171658
484,5.742,0.0257912288638622
485,5.749,0.0126719666685501
486,5.757,0.0270360607543791
487,5.764,0.0189087854284958
488,5.772,0.0434214242488779
489,5.780,0.0185290062076602
490,5.787,0.0249219564250605
491,5.795,0.0248670994264954
492,5.802,0.0202802103926246
493,5.810,0.0192548064963683
494,5.817,0.0170520870155214
495,5.825,0.0197653985599363
496,5.832,0.0195459705656757
497,5.840,0.0169339334801504
498,5.847,0.0265550070746539
499,5.855,0.0105747414157131
500,5.862,0.0257912288638622
501,5.870,0.0151320920657411
502,5.877,0.0183348968281219
503,5.885,0.00660815844254061
504,5.893,0.00938476652376137
505,5.900,0.00907250360885204
506,5.908,0.0144358301608757
507,5.915,0.016419121647462
508,5.923,0.0194742344906289
509,5.930,0.0166512089490838
510,5.938,0.0110684544027995
511,5.945,0.0238374757611187
512,5.953,0.0244240236688538
513,5.960,0.0157861562794026
514,5.968,0.0178496233792763
515,5.975,0.0109165427144652
516,5.983,0.0077601554124088
517,5.991,0.0122964072168348
518,5.998,0.00936366767815939
519,6.006,0.00895856984260135
520,6.013,0.0211283839858243
521,6.021,0.0188286098152083
522,6.028,0.0226939183294913
523,6.036,0.0329057596008503
524,6.043,0.0192210483434051
525,6.051,0.0181661060633061
526,6.058,0.0162714297282481
527,6.066,0.0122035722961861
528,6.073,0.0223225786468964
529,6.081,0.0210693072181387
530,6.088,0.00909360245445403
531,6.096,0.0183095782133995
532,6.104,0.0188665877372919
533,6.111,0.0224913694117123
534,6.119,0.0168537578668628
535,6.126,0.0170098893243175
536,6.134,0.0266351826879414
537,6.141,0.0295215047662925
538,6.149,0.0314499392543136
539,6.156,0.0203435069294306
540,6.164,0.0290109127027246
541,6.171,0.0160393424266263
542,6.179,0.0151700699878247
543,6.186,0.0287535067863804
544,6.194,0.0130475261202654
545,6.202,0.0162081331914422
546,6.209,0.0311967531070898
547,6.217,0.0158705516618105
548,6.224,0.0161026389634323
549,6.232,0.0210271095269348
550,6.239,0.0104270494964993
551,6.247,0.00976876551371744
552,6.254,0.0115199696986819
553,6.262,0.0184910282855766
554,6.269,0.0182125235236304
555,6.277,0.0140518311709197
556,6.284,0.0216558551258738
557,6.292,0.0174571848510795
558,6.299,0.0154907724409748
559,6.307,0.0239640688347306
560,6.315,0.0155540689777808
561,6.322,0.0152291467555102
562,6.330,0.022989302167919
563,6.337,0.0222508425718497
564,6.345,0.0167356043314917
565,6.352,0.0202928696999858
566,6.360,0.00754072741814819
567,6.367,0.01277746089656
568,6.375,0.0176090965394138
569,6.382,0.00927927229575146
570,6.390,0.0153894979820853
571,6.397,0.0242467933657971
572,6.405,0.0193096634949335
573,6.413,0.0149590815318049
574,6.420,0.0149675210700457
575,6.428,0.0131488005791549
576,6.435,0.0241750572907504
577,6.443,0.0102498191934426
578,6.450,0.00882353723074866
579,6.458,0.0174698441584407
580,6.465,0.022626402023565
581,6.473,0.0211072851402223
582,6.480,0.0304920516639837
583,6.488,0.0386235467589873
584,6.495,0.0208498792238781
585,6.503,0.0268039734527573
586,6.510,0.0254367682577489
587,6.518,0.0242763317496399
588,6.526,0.0270824782147035
589,6.533,0.02140266897865
590,6.541,0.0259853382434004
591,6.548,0.0194151577229434
592,6.556,0.0286944300186948
593,6.563,0.025778569556501
594,6.571,0.0297578118370347
595,6.578,0.0227825334810196
596,6.586,0.024213035212834
597,6.593,0.0160393424266263
598,6.601,0.0255718008696016
599,6.608,0.0186513795121516
600,6.616,0.0311840937997287
601,6.623,0.0283484089508223
602,6.631,0.0139083590208262
603,6.639,0.0181196886029817
604,6.646,0.0223521170307392
605,6.654,0.032125102313577
606,6.661,0.0271457747515094
607,6.669,0.0147396535375443
608,6.676,0.0218288656598101
609,6.684,0.0188581481990511
610,6.691,0.00986160043436615
611,6.699,0.0155793875925031
612,6.706,0.0190564773477097
613,6.714,0.0118237930753504
614,6.721,0.0218584040436528
615,6.729,0.0203561662367918
616,6.737,0.0172715150097821
617,6.744,0.0145371046197653
618,6.752,0.015524530593938
619,6.759,0.0215714597434659
620,6.767,0.0228373904795848
621,6.774,0.0230272800900026
622,6.782,0.0217908877377265
623,6.789,0.0200228044762804
624,6.797,0.0200312440145212
625,6.804,0.00766310072263968
626,6.812,0.0264115349245604
627,6.819,0.0217613493538837
628,6.827,0.0201831557028555
629,6.834,0.0096970294386707
630,6.842,0.0146383790786548
631,6.850,0.0134019867263786
632,6.857,0.0205755942310524
633,6.865,0.0141277870150868
634,6.872,0.0180943699882593
635,6.880,0.00857035108352489
636,6.887,0.0366275959650399
637,6.895,0.464600799924753
638,6.902,3.11131594808148
639,6.910,3.3860271375884
640,6.917,0.961419537083732
641,6.925,0.427766435272814
642,6.932,0.294932323131859
643,6.940,0.219609444332785
644,6.948,0.188075109696063
645,6.955,0.148687784726284
646,6.963,0.126403184001471
647,6.970,0.103430760910034
648,6.978,0.0926956682677455
649,6.985,0.0960419451802198
650,6.993,0.249818771465702
651,7.000,0.294278258918197
652,7.008,0.169364653416226
653,7.015,0.125816636093736
654,7.023,0.139429611276135
655,7.030,0.147004096847246
656,7.038,0.0977804900578231
657,7.045,0.0686429842814866
658,7.053,0.0657271238192928
659,7.061,0.0617478815387591
660,7.068,0.0643303802404416
661,7.076,0.05654068644419
662,7.083,0.0518947206426337
663,7.091,0.0479787748989059
664,7.098,0.0544139228075103
665,7.106,0.0516077763424468
666,7.113,0.043742126702028
667,7.121,0.0515276007291592
668,7.128,0.0380201197747707
669,7.136,0.0435775557063326
670,7.143,0.0408431453163158
671,7.151,0.0485484437301594
672,7.159,0.050599251522672
673,7.166,0.0571314541210455
674,7.174,0.0459153077990321
675,7.181,0.0558106663863615
676,7.189,0.267111385321086
677,7.196,0.581880843087927
678,7.204,0.380602075814144
679,7.211,0.140429696557668
680,7.219,0.107511277649457
681,7.226,0.129344363078387
682,7.234,0.116756791792245
683,7.241,0.0930248102591364
684,7.249,0.0649717851467418
685,7.256,0.0514727437305941
686,7.264,0.0649760049158622
687,7.272,0.0479829946680263
688,7.279,0.0477804457502473
689,7.287,0.0419571643641004
690,7.294,0.0360283887499436
691,7.302,0.0457169786503735
692,7.309,0.0272343899030377
693,7.317,0.0355768734540612
