#"+EI TIC Scan TOL-PEEK-2Hour.d "
#Point,X(Minutes),Y(Counts)
0,2.095,0.0782887694711838
1,2.102,0.0764512739897034
2,2.110,0.0676040735233163
3,2.117,0.0595484646776059
4,2.125,0.0578220069347724
5,2.132,0.0573456192173516
6,2.140,0.0605513861879655
7,2.148,0.0610098645927014
8,2.155,0.0510021406643266
9,2.163,0.0534915351275408
10,2.170,0.0433942646357411
11,2.178,0.0522916111776462
12,2.185,0.0556621438249621
13,2.193,0.065497938351561
14,2.200,0.0429644411313012
15,2.208,0.0516289666083014
16,2.215,0.0573850197052586
17,2.223,0.0465140669054671
18,2.230,0.068478047982344
19,2.238,0.118348320084979
20,2.246,0.0788009758139747
21,2.253,0.0704588179653044
22,2.261,0.0418433181572206
23,2.268,0.0639792286358735
24,2.276,0.0617835469006931
25,2.283,0.0611495572316444
26,2.291,0.0525101047924031
27,2.298,0.0495693956495271
28,2.306,0.0447195537744306
29,2.313,0.0418397362946836
30,2.321,0.0440963096929928
31,2.328,0.0357362425316375
32,2.336,0.0443291307578978
33,2.343,0.0493150834094002
34,2.351,0.0533052782756169
35,2.359,0.0476817540925287
36,2.366,0.0454574174570524
37,2.374,0.0447553723998006
38,2.381,0.0419507740333305
39,2.389,0.0384190575718497
40,2.396,0.0354138749033076
41,2.404,0.0382614556202217
42,2.411,0.0500816019923179
43,2.419,0.062123823841708
44,2.426,0.0375379193877479
45,2.434,0.0755665539430647
46,2.441,0.320881155377042
47,2.449,0.313803395003932
48,2.456,0.0831207020335953
49,2.464,0.0419328647206455
50,2.472,0.0375773198756549
51,2.479,0.0270717170546373
52,2.487,0.0355535675422506
53,2.494,0.0321472162695647
54,2.502,0.0418110813943876
55,2.509,0.0744919951819651
56,2.517,0.065454956001117
57,2.524,0.0787329204257717
58,2.532,0.0897722207648022
59,2.539,0.0457188934222533
60,2.547,0.0395473442710043
61,2.554,0.0349410690484238
62,2.562,0.0348192857221658
63,2.570,0.0452102689419995
64,2.577,0.049956236803523
65,2.585,0.0339094926377681
66,2.592,0.0418540637448316
67,2.600,0.0452854880552764
68,2.607,0.0415746784669456
69,2.615,0.0368179650178112
70,2.622,0.0293211267278726
71,2.630,0.0333686313946813
72,2.637,0.0381038536685938
73,2.645,0.0557767634261461
74,2.652,0.0555761791240741
75,2.660,0.0603293107106716
76,2.667,0.0450526669903715
77,2.675,0.0421871769607724
78,2.683,0.031144294759205
79,2.690,0.040596829994345
80,2.698,0.0450061027773905
81,2.705,0.0431614435708361
82,2.713,0.0245321765159051
83,2.720,0.0402565530533301
84,2.728,0.0411376912374318
85,2.735,0.037244206659714
86,2.743,0.0385086041352746
87,2.750,0.0558125820515161
88,2.758,0.0748860000610349
89,2.765,0.0544228193871605
90,2.773,0.0525853239056801
91,2.781,0.037208388034344
92,2.788,0.0462955732907101
93,2.796,0.0855921871841245
94,2.803,0.0527106890944751
95,2.811,0.040324608441533
96,2.818,0.0267815861891404
97,2.826,0.0535524267906698
98,2.833,0.049823707889654
99,2.841,0.0476638447798437
100,2.848,0.0455935282334584
101,2.856,0.037362408123435
102,2.863,0.0551105369942643
103,2.871,0.0401670064899051
104,2.878,0.0410839632993768
105,2.886,0.0354246204909186
106,2.894,0.0413526029896517
107,2.901,0.0388094805883825
108,2.909,0.0520910268755743
109,2.916,0.0504684431463138
110,2.924,0.0502786044318528
111,2.931,0.0553147031588732
112,2.939,0.0557588541134611
113,2.946,0.0519764072743903
114,2.954,0.0409729255607298
115,2.961,0.0421871769607724
116,2.969,0.133725255956315
117,2.976,3.42825436209965
118,2.984,25.5264800650008
119,2.992,64.6737087994471
120,2.999,100
121,3.007,14.0065116828178
122,3.014,0.149789909434755
123,3.022,0.0824222388388805
124,3.029,0.0707346213806533
125,3.037,0.0765121656528324
126,3.044,0.0694558964549447
127,3.052,0.0582697397518973
128,3.059,0.0896826742013772
129,3.067,0.0666333887757896
130,3.074,0.0677330205746482
131,3.082,0.0737756226745653
132,3.089,0.0534843714024668
133,3.097,0.0421191215725695
134,3.105,0.062091587078875
135,3.112,0.0491753907704572
136,3.120,0.0487706403037763
137,3.127,0.052793071932826
138,3.135,0.0803089399420512
139,3.142,0.0914162956692846
140,3.150,0.0780416209561309
141,3.157,0.0488709324548123
142,3.165,0.040342517754218
143,3.172,0.062306498831095
144,3.180,0.0583915230781552
145,3.187,0.0432688994469461
146,3.195,0.0587855279572251
147,3.203,0.043473065611555
148,3.210,0.0401383515896091
149,3.218,0.0337590544112142
150,3.225,0.0348371950348508
151,3.233,0.0336945808855482
152,3.240,0.0276627243732421
153,3.248,0.0320111054931587
154,3.255,0.0390315560656765
155,3.263,0.131239443355638
156,3.270,0.251400185884338
157,3.278,0.130451433597498
158,3.285,0.0357935523322295
159,3.293,0.0363129224000943
160,3.300,0.0325734579114675
161,3.308,0.055894964889867
162,3.316,0.0555188693234822
163,3.323,0.0557230354880911
164,3.331,0.0349159960106648
165,3.338,0.0261010323071106
166,3.346,0.0385515864857186
167,3.353,0.0273582660575972
168,3.361,0.028096129740219
169,3.368,0.0142092486842744
170,3.376,0.021799215400175
171,3.383,0.01545573684715
172,3.391,0.0148647295285452
173,3.398,0.0182173528631761
174,3.406,0.0159392882896449
175,3.413,0.0327632966259285
176,3.421,0.0148289109031752
177,3.429,0.0237799853831354
178,3.436,0.0266848759006414
179,3.444,0.0223687315435578
180,3.451,0.0524778680295701
181,3.459,0.173953154109349
182,3.466,0.204843136628427
183,3.474,0.0721852757081378
184,3.481,0.0288590664605997
185,3.489,0.062399627257057
186,3.496,0.0945325160764736
187,3.504,0.0385515864857186
188,3.511,0.018528974903895
189,3.519,0.0255744985141718
190,3.527,0.0192166925109988
191,3.534,0.00861437940148223
192,3.542,0.0244748667153131
193,3.549,0.0151942608819491
194,3.557,0.0308577457562451
195,3.564,0.0309150555568371
196,3.572,0.0179093126849942
197,3.579,0.0242492093754822
198,3.587,0.0292065071266886
199,3.594,0.0193778763251638
200,3.602,0.0299013884588664
201,3.609,0.0195569694520137
202,3.617,0.0202769238219505
203,3.624,0.0122535517390731
204,3.632,0.0219639810768769
205,3.640,0.0180919876743812
206,3.647,0.0202088684337475
207,3.655,0.0177445470082923
208,3.662,0.0113616679673604
209,3.670,0.0167058068725626
210,3.677,0.0104948572334066
211,3.685,0.015699303499666
212,3.692,0.0130272340470648
213,3.700,0.00944178964752897
214,3.707,0.0204094527358194
215,3.715,0.0162938926808078
216,3.722,0.0145817623881223
217,3.730,0.012396826240553
218,3.738,0.0120852041998341
219,3.745,0.00950984503573194
220,3.753,0.0145960898382703
221,3.760,0.0262908710215716
222,3.768,0.0122535517390731
223,3.775,0.0198005361045296
224,3.783,0.00764727651649254
225,3.790,0.0283576057054199
226,3.798,0.0198900826679546
227,3.805,0.0131669266860078
228,3.813,0.0193528032874048
229,3.820,0.0119347659732802
230,3.828,0.00849975980029827
231,3.835,0.0104841116457956
232,3.843,0.0145495256252893
233,3.851,0.0132027453113778
234,3.858,0.00731774516308865
235,3.866,0.00578112613471614
236,3.873,0.00631482365272897
237,3.881,0.0197862086543816
238,3.888,0.0141734300589044
239,3.896,0.00845677744985428
240,3.903,0.0170210107758185
241,3.911,0.0172108494902795
242,3.918,0.006225277089304
243,3.926,0.0203485610726905
244,3.933,0.0227878094603867
245,3.941,0.0107133508481636
246,3.949,0.00680553882029781
247,3.956,0.0117700002965782
248,3.964,0.0316923197273658
249,3.971,0.0760071230351156
250,3.979,0.043469483749018
251,3.986,0.00605334768752806
252,3.994,0.0046707487482465
253,4.001,0.00423734338126964
254,4.009,0.00102441268558167
255,4.016,0.0106596229101086
256,4.024,0.00846035931239128
257,4.031,0.0187617959688
258,4.039,0.00988952246465382
259,4.046,0.0114153959054153
260,4.054,0.0101653258800027
261,4.062,0.015667066736833
262,4.069,0.00938089798439999
263,4.077,0.0111575018027514
264,4.084,0.0184824106909141
265,4.092,0.0775759788263211
266,4.099,0.111915294968529
267,4.107,0.0569766873760407
268,4.114,0.0142952133851624
269,4.122,0.0100686155915038
270,4.129,0.0096602832622859
271,4.137,0.0112649576788614
272,4.144,0.0128588865078259
273,4.152,0.0102656180310387
274,4.159,0.0114189777679523
275,4.167,0.00316278462016998
276,4.175,0.00678762950761282
277,4.182,0.0115228517815253
278,4.190,0.0149900947173402
279,4.197,0.0146247447385663
280,4.205,0.0096531195372119
281,4.212,0.00782278778080549
282,4.220,0.0112327209160284
283,4.227,0.0172932323286304
284,4.235,0.0185003200035991
285,4.242,0.0360478645723564
286,4.250,0.160761154385582
287,4.257,0.422563069077365
288,4.265,0.228039278418032
289,4.273,0.0473235678388288
290,4.280,0.0129305237585658
291,4.288,0.021720414424361
292,4.295,0.0163476206188627
293,4.303,0.0177875293587363
294,4.310,0.0228737741612746
295,4.318,0.00819171962211637
296,4.325,0.0141770119214414
297,4.333,0.0166090965840637
298,4.340,0.0028081802290071
299,4.348,0.0129341056211028
300,4.355,0.012335934577424
301,4.363,0.0158819784890529
302,4.370,0.00977490286346986
303,4.378,0.0128911232706589
304,4.386,0.0223364947807248
305,4.393,0.0129448512087138
306,4.401,0.00924836907053103
307,4.408,0.0377062669269869
308,4.416,0.116525152053647
309,4.423,0.0937767430811669
310,4.431,0.0412809657389117
311,4.438,0.0232928520781035
312,4.446,0.0132851281497287
313,4.453,0.0189659621334089
314,4.461,0.00885794605399815
315,4.468,0.0129448512087138
316,4.476,0.0104196381201297
317,4.484,0.0166162603091377
318,4.491,0.00780846033065749
319,4.499,0.0109819905384385
320,4.506,0.0171750308649095
321,4.514,0.0071601432114607
322,4.521,0.00842095882448429
323,4.529,0.0052760835169993
324,4.536,0.018564793529265
325,4.544,0.0136648055786506
326,4.551,0.0142486491721814
327,4.559,0.0104841116457956
328,4.566,0.00975341168824787
329,4.574,0.00794457110706345
330,4.581,0.00601752906215807
331,4.589,0.00790875248169346
332,4.597,0.00402959535412371
333,4.604,0.0130988712978048
334,4.612,0.00791949806930446
335,4.619,0.0099754871655418
336,4.627,0.0149650216795812
337,4.634,0.0119813301862612
338,4.642,0.00817022844689438
339,4.649,0.015448573122076
340,4.657,0.0110894464145484
341,4.664,0.00483909628748545
342,4.672,0.00540144870579426
343,4.679,0.00773324121738052
344,4.687,0.0110751189644004
345,4.695,0
346,4.702,0.00669450108165085
347,4.710,0.00710283341086872
348,4.717,0.000856065146342725
349,4.725,0.0176729097575523
350,4.732,0.00084173769619473
351,4.740,0.00600678347454707
352,4.747,0.00548383154414524
353,4.755,0.0176729097575523
354,4.762,0.0102906910687977
355,4.770,0.00879705439086917
356,4.777,0.00579903544740114
357,4.785,0.00860363381387124
358,4.792,0.00786935199378647
359,4.800,0.0152658981326891
360,4.808,0.00597454671171408
361,4.815,0.0139621001692215
362,4.823,0.0115371792316733
363,4.830,0.0168741544118016
364,4.838,0.0266777121755674
365,4.845,0.0173039779162414
366,4.853,0.0135215310771707
367,4.860,0.0118308919597072
368,4.868,0.00792307993184145
369,4.875,0.0184358464779331
370,4.883,0.0116768718706162
371,4.890,0.0103086003814827
372,4.898,0.00862512498909323
373,4.905,0.00911584015666207
374,4.913,0.00781920591826849
375,4.921,0.00838872206165131
376,4.928,0.0113437586546754
377,4.936,0.00657988148046689
378,4.943,0.0102190538180577
379,4.951,0.00505042617716838
380,4.958,0.0193134027994978
381,4.966,0.0267815861891404
382,4.973,0.0209467321163693
383,4.981,0.0153017167580591
384,4.988,0.0153697721462621
385,4.996,0.0164120941445287
386,5.003,0.0127585943567899
387,5.011,0.0101724896050767
388,5.019,0.0140910472205535
389,5.026,0.01559901134863
390,5.034,0.0136934604789466
391,5.041,0.00594947367395509
392,5.049,0.0102656180310387
393,5.056,0.00620736777661901
394,5.064,0.0144886339621603
395,5.071,0.0112792851290094
396,5.079,0.00395437624084673
397,5.086,0.00836364902389231
398,5.094,0.00795173483213745
399,5.101,0.00894749261742313
400,5.109,0.0129985791467688
401,5.116,0.00737505496368063
402,5.124,0.0135716771526886
403,5.132,0.0096352102245269
404,5.139,0.00967461071243389
405,5.147,0.00657271775539289
406,5.154,0.00505042617716838
407,5.162,0.0112291390534914
408,5.169,0.01240040810309
409,5.177,0.00771175004215852
410,5.184,0.018564793529265
411,5.192,0.015516628510279
412,5.199,0.0114870331561553
413,5.207,0.0122248968387771
414,5.214,0.0128087404323079
415,5.222,0.01247204535383
416,5.230,0.0146175810134923
417,5.237,0.00634347855302496
418,5.245,0.0236976025447844
419,5.252,0.00860005195133424
420,5.260,0.0175188896684614
421,5.267,0.00919105926993905
422,5.275,0.0143346138730694
423,5.282,0.00690583097133378
424,5.290,0.00811650050883939
425,5.297,0.015656321149222
426,5.305,0.0137328609668536
427,5.312,0.00700970498490675
428,5.320,0.012414735553238
429,5.327,0.00572739819666116
430,5.335,0.00709208782325772
431,5.343,0.00882929115370216
432,5.350,0.00938806170947398
433,5.358,0.0132349820742107
434,5.365,0.0181600430625842
435,5.373,0.0173003960537044
436,5.380,0.0138868810559445
437,5.388,0.0111503380776774
438,5.395,0.0242886098633892
439,5.403,0.00707059664803573
440,5.410,0.00862154312655623
441,5.418,0.0139728457568325
442,5.425,0.0122213149762401
443,5.433,0.0163332931687148
444,5.441,0.0141555207462195
445,5.448,0.0105629126216096
446,5.456,0.0149506942294332
447,5.463,0.00865736175192622
448,5.471,0.0145638530754373
449,5.478,0.0134892943143377
450,5.486,0.0191737101605548
451,5.493,0.0144026692612724
452,5.501,0.0109139351502355
453,5.508,0.0170102651882075
454,5.516,0.0225657339830928
455,5.523,0.01232877085235
456,5.531,0.0151333692188201
457,5.538,0.00484267815002244
458,5.546,0.0144277422990314
459,5.554,0.0100184695159858
460,5.561,0.0137292791043166
461,5.569,0.0139406089939995
462,5.576,0.0103014366564087
463,5.584,0.0147286187521393
464,5.591,0.00888660095429415
465,5.599,0.0175045622183134
466,5.606,0.01861852146732
467,5.614,0.00337769637238991
468,5.621,0.00549815899429323
469,5.629,0.012486372803978
470,5.636,0.02487245345692
471,5.644,0.0207174929140013
472,5.652,0.0109354263254575
473,5.659,0.012350262027572
474,5.667,0.0163082201309558
475,5.674,0.0117592547089672
476,5.682,0.0104124743950557
477,5.689,0.00208822585907033
478,5.697,0.0122714610517581
479,5.704,0.0134821305892637
480,5.712,0.0106811140853306
481,5.719,0.0149399486418222
482,5.727,0.0141519388836825
483,5.734,0.0178699121970873
484,5.742,0.0213120820951432
485,5.749,0.0138797173308705
486,5.757,0.0109390081879945
487,5.765,0.0126690477933649
488,5.772,0.0119992394989461
489,5.780,0.0200082841316756
490,5.787,0.00945611709767696
491,5.795,0.0199975385440646
492,5.802,0.0151262054937461
493,5.810,0.0104268018452036
494,5.817,0.0313162241609809
495,5.825,0.0101975626428357
496,5.832,0.0139692638942955
497,5.840,0.0113831591425823
498,5.847,0.0107455876109965
499,5.855,0.0128911232706589
500,5.862,0.0138797173308705
501,5.870,0.00842095882448429
502,5.878,0.00836723088642931
503,5.885,0.00690583097133378
504,5.893,0.00952417248587994
505,5.900,0.0109784086759015
506,5.908,0.0120708767496861
507,5.915,0.0159213789769599
508,5.923,0.00621811336423
509,5.930,0.00889734654190514
510,5.938,0.0107885699614405
511,5.945,0.0137292791043166
512,5.953,0.0137149516541686
513,5.960,0.0128803776830479
514,5.968,0.0231961417896045
515,5.976,0.0215449031600481
516,5.983,0.0115228517815253
517,5.991,0.0111897385655844
518,5.998,0.00969252002511889
519,6.006,0.0142414854471074
520,6.013,0.0145925079757333
521,6.021,0.0129054507208069
522,6.028,0.0225299153577228
523,6.036,0.012375335065331
524,6.043,0.00827768432300434
525,6.051,0.0144205785739574
526,6.058,0.0146104172884183
527,6.066,0.0309652016323551
528,6.073,0.0207855483022043
529,6.081,0.0170317563634295
530,6.089,0.0140015006571285
531,6.096,0.0115980708948023
532,6.104,0.018786869006559
533,6.111,0.012532937016959
534,6.119,0.0221251648910419
535,6.126,0.0138295712553526
536,6.134,0.0224976785948898
537,6.141,0.0113258493419904
538,6.149,0.0160180892654589
539,6.156,0.00836723088642931
540,6.164,0.00785502454363848
541,6.171,0.0129197781709548
542,6.179,0.0144599790618644
543,6.187,0.00401884976651271
544,6.194,0.0134498938264307
545,6.202,0.0178949852348463
546,6.209,0.00671599225687284
547,6.217,0.0150868050058392
548,6.224,0.0178269298466433
549,6.232,0.0080806818834694
550,6.239,0.0137973344925196
551,6.247,0.0199545561936206
552,6.254,0.00953491807349094
553,6.262,0.0109425900505315
554,6.269,0.0148933844288412
555,6.277,0.0149542760919702
556,6.284,0.0134498938264307
557,6.292,0.00477104089928247
558,6.300,0.0213908830709571
559,6.307,0.00750400201501259
560,6.315,0.00986086756435783
561,6.322,0.0106130586971276
562,6.330,0.0193850400502378
563,6.337,0.0118953654853732
564,6.345,0.0179379675852902
565,6.352,0.00854274215074226
566,6.360,0.00646526187928292
567,6.367,0.0127120301438089
568,6.375,0.0180096048360302
569,6.382,0.0116804537331532
570,6.390,0.000322367628329896
571,6.398,0.0127693399444009
572,6.405,0.00927344210829002
573,6.413,0.0162580740554378
574,6.420,0.0118917836228362
575,6.428,0.0164873132578057
576,6.435,0.0214052105211051
577,6.443,0.0220714369529869
578,6.450,0.0213837193458831
579,6.458,0.0246109774917191
580,6.465,0.0174615798678694
581,6.473,0.0153232079332811
582,6.480,0.0107276782983116
583,6.488,0.0167129705976366
584,6.495,0.0142235761344224
585,6.503,0.0182782445263051
586,6.511,0.015663484874296
587,6.518,0.0131848359986928
588,6.526,0.0157995956507019
589,6.533,0.00898331124279311
590,6.541,0.0223758952686318
591,6.548,0.00838155833657731
592,6.556,0.0151226236312091
593,6.563,0.0102262175431317
594,6.571,0.0200906669700265
595,6.578,0.0181886979628802
596,6.586,0.00755772995306757
597,6.593,0.00773682307991751
598,6.601,0.00762220347873355
599,6.608,0.0140946290830905
600,6.616,0.0142379035845704
601,6.624,0.0151262054937461
602,6.631,0.00564143349577319
603,6.639,0.0117341816712082
604,6.646,0.0183498817770451
605,6.654,0.00889018281683114
606,6.661,0.00799113532004443
607,6.669,0.0103945650823707
608,6.676,0.0143740143609764
609,6.684,0.00989310432719082
610,6.691,0.0117449272588192
611,6.699,0.0152909711704481
612,6.706,0.0173863607545924
613,6.714,0.0145960898382703
614,6.722,0.0115873253071913
615,6.729,0.0190626724219079
616,6.737,0.0145745986630483
617,6.744,0.00948477199797295
618,6.752,0.0119132747980582
619,6.759,0.0204309439110414
620,6.767,0.0116052346198763
621,6.774,0.00892958330473813
622,6.782,0.0206315282131134
623,6.789,0.0147357824772133
624,6.797,0.00238552044964123
625,6.804,0.00782636964334248
626,6.812,0.00541935801847926
627,6.819,0.0145817623881223
628,6.827,0.0122893703644431
629,6.835,0.0165876054088417
630,6.842,0.0197109895411047
631,6.850,0.0117986551968742
632,6.857,0.0133782565756907
633,6.865,0.0106130586971276
634,6.872,0.0182746626637681
635,6.880,0.00627542316482198
636,6.887,0.0160861446536618
637,6.895,0.0207139110514643
638,6.902,0.0132564732494327
639,6.910,0.0210434424048682
640,6.917,0.0040510865293457
641,6.925,0.0179379675852902
642,6.933,0.0206422738007244
643,6.940,0.0096531195372119
644,6.948,0.0222612756674478
645,6.955,0.0126224835803839
646,6.963,0.0077762235678245
647,6.970,0.0179845317982712
648,6.978,0.0164443309073617
649,6.985,0.0100793611791148
650,6.993,0.0119813301862612
651,7.000,0.00993966854017181
652,7.008,0.0130343977721388
653,7.015,0.0174365068301104
654,7.023,0.0193528032874048
655,7.030,0.0162473284678268
656,7.038,0.0330534274914254
657,7.046,0.0269893342162863
658,7.053,0.0170210107758185
659,7.061,0.0236653657819514
660,7.068,0.0140731379078685
661,7.076,0.0202267777464325
662,7.083,0.0132421457992847
663,7.091,0.0102333812682057
664,7.098,0.0152730618577631
665,7.106,0.018740304793578
666,7.113,0.021731160011972
667,7.121,0.00723894418727467
668,7.128,0.0166986431474886
669,7.136,0.0178484210218653
670,7.144,0.0206995836013163
671,7.151,0.021845779613156
672,7.159,0.0175367989811464
673,7.166,0.0247112696427551
674,7.174,0.0166950612849516
675,7.181,0.0167953534359876
676,7.189,0.0188334332195399
677,7.196,0.0233573256037695
678,7.204,0.0122535517390731
679,7.211,0.0237513304828394
680,7.219,0.0201766316709145
681,7.226,0.0260329769189076
682,7.234,0.0316206824766258
683,7.241,0.0210720973051642
684,7.249,0.0172824867410194
685,7.257,0.0221502379288009
686,7.264,0.0126977026936609
687,7.272,0.0152766437203001
688,7.279,0.021716832561824
689,7.287,0.00626825943974799
690,7.294,0.0227448271099427
