#"+EI TIC Scan TOL-PLA.d "
#Point,X(Minutes),Y(Counts)
0,2.095,0.043612743674152
1,2.102,0.0461323655278712
2,2.110,0.0464070162512624
3,2.117,0.0350358792360769
4,2.125,0.0410990924883326
5,2.132,0.0229243794013152
6,2.140,0.0277098697230118
7,2.147,0.0262022760783101
8,2.155,0.0273964096582718
9,2.162,0.0197509694125669
10,2.170,0.0302145649069815
11,2.178,0.0299817088588889
12,2.185,0.0186971465282507
13,2.193,0.0245036210608145
14,2.200,0.0248051397897549
15,2.208,0.0247185651052076
16,2.215,0.015443132522855
17,2.223,0.00841864173873014
18,2.230,0.0166611487744159
19,2.238,0.0506282784564271
20,2.245,0.0892017784231406
21,2.253,0.0402094629712611
22,2.260,0.0241394103189262
23,2.268,0.0288442966239754
24,2.276,0.0251185998544948
25,2.283,0.0231811181210069
26,2.291,0.0252827932217396
27,2.298,0.0219033951904479
28,2.306,0.0178642383562274
29,2.313,0.0270083162447842
30,2.321,0.0149774204266699
31,2.328,0.0150848924488665
32,2.336,0.0161387153331827
33,2.343,0.0204555082247443
34,2.351,0.0159237712887896
35,2.358,0.0243036036861709
36,2.366,0.0226348020081744
37,2.373,0.0209033083172299
38,2.381,0.0196464827243202
39,2.389,0.00499744903213981
40,2.396,0.0134996801214673
41,2.404,0.010636744863509
42,2.411,0.0059617118979589
43,2.419,0.0353314272971174
44,2.426,0.0297010874675979
45,2.434,0.0169656528373062
46,2.441,0.0598499750276815
47,2.449,0.326828390167623
48,2.456,0.197333559422624
49,2.464,0.0303668169384266
50,2.471,0.0178821503599268
51,2.479,0.0176492943118343
52,2.487,0.0147833737199261
53,2.494,0.00641548265834435
54,2.502,0.0132727947412745
55,2.509,0.0144191629780378
56,2.517,0.0343193990880999
57,2.524,0.035471737992763
58,2.532,0.0478608738848658
59,2.539,0.0282740978395437
60,2.547,0.0142370576070936
61,2.554,0.0147356083767276
62,2.562,0.00414961419036698
63,2.569,0.010762128889405
64,2.577,0.0170044621786549
65,2.584,0.0199718841248598
66,2.592,0.00274352189996206
67,2.600,0.00503028770558875
68,2.607,0.00680357607183191
69,2.615,0.00774694160000167
70,2.622,0.0164462047300228
71,2.630,0.00667520671198603
72,2.637,0.0113114303361874
73,2.645,0.0343761204331481
74,2.652,0.0243901783707182
75,2.660,0.016908931492258
76,2.667,0.0221780459138391
77,2.675,0.00875598447506933
78,2.682,0.0100874434167266
79,2.690,0.0074902028803099
80,2.697,0.00627517196269885
81,2.705,0.0136101374776137
82,2.713,0.00881270582011751
83,2.720,0.00927841791630258
84,2.728,0.0110397649467461
85,2.735,0.0156879299067471
86,2.743,0.00776186826975119
87,2.750,0.0154013378475563
88,2.758,0.0366837835764241
89,2.765,0.0432425622643639
90,2.773,0.0193300373256304
91,2.780,0.0186792345245512
92,2.788,0
93,2.795,0.0313878011492939
94,2.803,0.0536165977402813
95,2.811,0.0264620001319518
96,2.818,0.0145236496662844
97,2.826,0.0235990648739935
98,2.833,0.0335611242648242
99,2.841,0.0218078645040509
100,2.848,0.0120577638236635
101,2.856,0.0126160212722956
102,2.863,0.0154073085154561
103,2.871,0.0236080208758432
104,2.878,0.023273663473454
105,2.886,0.0271068322651311
106,2.893,0.023458754178348
107,2.901,0.0244648117194658
108,2.908,0.0271008615972313
109,2.916,0.0330894415007393
110,2.924,0.0242856916824715
111,2.931,0.023646830217192
112,2.939,0.0247752864502558
113,2.946,0.0322057826515676
114,2.954,0.0231423087796582
115,2.961,0.0263037774326068
116,2.969,0.0215959057936077
117,2.976,0.351448439252484
118,2.984,8.20653674692339
119,2.991,37.7152970601327
120,2.999,79.277382005422
121,3.006,100
122,3.014,3.22698479181326
123,3.022,0.0790277603218668
124,3.029,0.0402303603089104
125,3.037,0.0313071971326464
126,3.044,0.0225750953291764
127,3.052,0.0199360601174609
128,3.059,0.0399109295762707
129,3.067,0.0573482651776617
130,3.074,0.0189479145800426
131,3.082,0.0165148674108706
132,3.089,0.0314355664924923
133,3.097,0.0229154233994654
134,3.104,0.0161357299992328
135,3.112,0.0228885553939163
136,3.119,0.015661061901198
137,3.127,0.00847834841772823
138,3.135,0.0423529327472924
139,3.142,0.0427649088323792
140,3.150,0.0692955716451787
141,3.157,0.0407169697427448
142,3.165,0.0769828065661823
143,3.172,0.0627218662874895
144,3.180,0.0677730513307275
145,3.187,0.0494072768709162
146,3.195,0.0514193919531517
147,3.202,0.0673431632419413
148,3.210,0.0633875957583181
149,3.217,0.0532464163304932
150,3.225,0.0568974797512261
151,3.233,0.0388541213580045
152,3.240,0.0291577566887153
153,3.248,0.0244737677213155
154,3.255,0.0360210394395453
155,3.263,0.0329551014729936
156,3.270,0.0494431008783151
157,3.278,0.050007328994847
158,3.285,0.022930350069215
159,3.293,0.0209988390036269
160,3.300,0.0262440707536087
161,3.308,0.0349433338836299
162,3.315,0.0507715744860225
163,3.323,0.0348895978725316
164,3.330,0.0455502254076399
165,3.338,0.0134698267819682
166,3.346,0.0744572140445633
167,3.353,1.0419054311882
168,3.361,3.05781487287403
169,3.368,0.873652009771595
170,3.376,0.60023124396776
171,3.383,0.605401842368994
172,3.391,0.631248863707265
173,3.398,0.560786026487674
174,3.406,0.475345768841413
175,3.413,0.364207756554375
176,3.421,0.335611242648242
177,3.428,0.305614607119603
178,3.436,0.272050497520829
179,3.444,0.23834607722641
180,3.451,0.227228693596966
181,3.459,0.271817641472737
182,3.466,0.407315978790993
183,3.474,0.314594491640916
184,3.481,0.209113687188947
185,3.489,0.184971291536071
186,3.496,0.248269327275892
187,3.504,0.192742115807672
188,3.511,0.156383733631787
189,3.519,0.164300839266933
190,3.526,0.174334546672562
191,3.534,0.168620617492445
192,3.541,0.151556448634792
193,3.549,0.163700787143003
194,3.557,0.168053404041963
195,3.564,0.166978683819997
196,3.572,0.156774812379225
197,3.579,0.149962280305543
198,3.587,0.144669283212363
199,3.594,0.129536625420298
200,3.602,0.130954659046502
201,3.609,0.137077578977756
202,3.617,0.13353398757922
203,3.624,0.129575434761646
204,3.632,0.118055031048966
205,3.639,0.128584303890278
206,3.647,0.11822818041806
207,3.654,0.111624621720872
208,3.662,0.119685023385613
209,3.670,0.108358666379677
210,3.677,0.121168734358716
211,3.685,0.10699138343062
212,3.692,0.10793773429274
213,3.700,0.0843565814224459
214,3.707,0.100056452664993
215,3.715,0.107167518133665
216,3.722,0.120885127633475
217,3.730,0.118467007134053
218,3.737,0.110069262732972
219,3.745,0.104546394925649
220,3.752,0.103313452004338
221,3.760,0.101928257051583
222,3.768,0.0884644009375143
223,3.775,0.0828370464419447
224,3.783,0.0949664582804058
225,3.790,0.0969397640212926
226,3.798,0.0895421064934297
227,3.805,0.101507324964646
228,3.813,0.0973786081119285
229,3.820,0.0901361879494607
230,3.828,0.0741825633211721
231,3.835,0.0942977434756273
232,3.843,0.0786904175855276
233,3.850,0.0798099178167417
234,3.858,0.0866493178959725
235,3.865,0.0862701804843346
236,3.873,0.0726152629974723
237,3.881,0.0759259983479162
238,3.888,0.0945932915366678
239,3.896,0.0713494814027129
240,3.903,0.073967619276779
241,3.911,0.0744601993785132
242,3.918,0.0707822679522311
243,3.926,0.0973666667761289
244,3.933,0.100217660698288
245,3.941,0.0827683837610969
246,3.948,0.0806637233264143
247,3.956,0.0818250182329271
248,3.963,0.079177027019362
249,3.971,0.132465238025154
250,3.979,0.124028684282724
251,3.986,0.0752423568733881
252,3.994,0.0755617876060279
253,4.001,0.0791352323440633
254,4.009,0.0653310481597058
255,4.016,0.0693612489920766
256,4.024,0.0735645991935419
257,4.031,0.0798726098296897
258,4.039,0.0710837866811714
259,4.046,0.0767857745254886
260,4.054,0.0797711084753929
261,4.061,0.0740392672915767
262,4.069,0.0770783372525792
263,4.076,0.0681909980837141
264,4.084,0.0828788411172433
265,4.092,0.0964680812572077
266,4.099,0.0879837621715797
267,4.107,0.0853298002901147
268,4.114,0.0713733640743121
269,4.122,0.0781829108140438
270,4.129,0.0891659544157418
271,4.137,0.0852133722660685
272,4.144,0.0911959815016767
273,4.152,0.0905750320400966
274,4.159,0.0802338352376281
275,4.167,0.0773291053043712
276,4.174,0.0834251572300758
277,4.182,0.0716868241390521
278,4.190,0.0756244796189759
279,4.197,0.0814787194947382
280,4.205,0.0728152803721159
281,4.212,0.0781590281424446
282,4.220,0.0714271000854104
283,4.227,0.0803024979184759
284,4.235,0.0707762972843313
285,4.242,0.074684099424756
286,4.250,0.117714702978677
287,4.257,0.369891832394993
288,4.265,0.433574976214352
289,4.272,0.158539144743618
290,4.280,0.0752751955468371
291,4.287,0.0799054485031386
292,4.295,0.0706479279244854
293,4.303,0.0710091533324238
294,4.310,0.0984473576659943
295,4.318,0.0733048751399002
296,4.325,0.0777351107215582
297,4.333,0.0686149155046005
298,4.340,0.0606978098694543
299,4.348,0.0681760714139646
300,4.355,0.0794457070748534
301,4.363,0.0740810619668753
302,4.370,0.0706449425905355
303,4.378,0.0680357607183191
304,4.385,0.0636532904798596
305,4.393,0.0673998845869895
306,4.400,0.0679223180282227
307,4.408,0.0795173550896511
308,4.416,0.142833302833171
309,4.423,0.215063457751106
310,4.431,0.114380084956634
311,4.438,0.069411999669225
312,4.446,0.0678685820171245
313,4.453,0.0791113496724641
314,4.461,0.0759439103516156
315,4.468,0.0598201216881825
316,4.476,0.0561630875995497
317,4.483,0.0631487690423258
318,4.491,0.0588707854921129
319,4.498,0.0640831785686458
320,4.506,0.0614978793680287
321,4.514,0.0645160519913819
322,4.521,0.0704777638893408
323,4.529,0.0698209904203619
324,4.536,0.0732123297874532
325,4.544,0.0632413143947728
326,4.551,0.0580617599916888
327,4.559,0.0651877521301104
328,4.566,0.0602261271053694
329,4.574,0.0637906158415552
330,4.581,0.0707136052713833
331,4.589,0.0648862334011701
332,4.596,0.0635010384484145
333,4.604,0.0601664204263714
334,4.611,0.0621277848314585
335,4.619,0.0602052297677201
336,4.627,0.0670326885111513
337,4.634,0.0600499924023251
338,4.642,0.0553630181009753
339,4.649,0.0600470070683752
340,4.657,0.0643011079469888
341,4.664,0.0632890797379713
342,4.672,0.0672356912197448
343,4.679,0.0694836476840227
344,4.687,0.060366437801015
345,4.694,0.0571542184709179
346,4.702,0.0667162431124614
347,4.709,0.0645279933271816
348,4.717,0.0632144463892237
349,4.725,0.0641906505908424
350,4.732,0.0550734407078346
351,4.740,0.049416232872766
352,4.747,0.0596559283209377
353,4.755,0.0646772600246768
354,4.762,0.0629427809997824
355,4.770,0.065856466934889
356,4.777,0.0532076069891444
357,4.785,0.0708121212917301
358,4.792,0.0548883500029406
359,4.800,0.0572288518196655
360,4.807,0.0553660034349252
361,4.815,0.0686208861725004
362,4.822,0.068599988834851
363,4.830,0.0537419817661773
364,4.838,0.0588230201489144
365,4.845,0.0541778405228633
366,4.853,0.0602858337843675
367,4.860,0.0636294078082604
368,4.868,0.0641428852476439
369,4.875,0.0573990158548101
370,4.883,0.0690865982686854
371,4.890,0.0574587225338082
372,4.898,0.0559391875533069
373,4.905,0.0588707854921129
374,4.913,0.0541927671926128
375,4.920,0.0583722347224789
376,4.928,0.0535359937236339
377,4.936,0.0469712443677943
378,4.943,0.0580766866614384
379,4.951,0.0629487516676822
380,4.958,0.0750124861592455
381,4.966,0.0967516879824486
382,4.973,0.0698657704296105
383,4.981,0.0531508856440962
384,4.988,0.0466936083104532
385,4.996,0.0521896081122271
386,5.003,0.0528642935849054
387,5.011,0.0506282784564271
388,5.018,0.0629577076695319
389,5.026,0.0589513895087603
390,5.033,0.0578826399546946
391,5.041,0.0434067556316086
392,5.049,0.0544405499104549
393,5.056,0.135059493227621
394,5.064,0.240417898987643
395,5.071,0.125784060645268
396,5.079,0.0762245317429066
397,5.086,0.0710778160132716
398,5.094,0.065357916165255
399,5.101,0.0678805233529241
400,5.109,0.0763558864367024
401,5.116,0.0603306137936161
402,5.124,0.0620770341543101
403,5.131,0.066978952500053
404,5.139,0.0645100813234821
405,5.147,0.0615575860470268
406,5.154,0.0563780316439428
407,5.162,0.0533389616829402
408,5.169,0.0653310481597058
409,5.177,0.0603574817991652
410,5.184,0.0452278093410502
411,5.192,0.0583543227187794
412,5.199,0.0628502356473353
413,5.207,0.055715287507064
414,5.214,0.0564765476642896
415,5.222,0.0576557545745018
416,5.229,0.0507745598199724
417,5.237,0.0531508856440962
418,5.244,0.0643966386333858
419,5.252,0.0539808084821696
420,5.260,0.0512223599124581
421,5.267,0.0567810517271799
422,5.275,0.0572616904931145
423,5.282,0.0700150371271057
424,5.290,0.0743139180149679
425,5.297,0.0688925515619416
426,5.305,0.0683641474528086
427,5.312,0.0616292340618245
428,5.320,0.0669252164889547
429,5.327,0.0632144463892237
430,5.335,0.0562675742877963
431,5.342,0.0557331995107635
432,5.350,0.064826526722172
433,5.357,0.0732242711232528
434,5.365,0.0626203649331927
435,5.373,0.0687522408662961
436,5.380,0.0580319066521898
437,5.388,0.0530822229632484
438,5.395,0.066572947082866
439,5.403,0.0594200869388953
440,5.410,0.0489564914444807
441,5.418,0.0551510593905321
442,5.425,0.0621934621783564
443,5.433,0.0502461557108394
444,5.440,0.0606739271978551
445,5.448,0.0615934100544256
446,5.455,0.0549331300121891
447,5.463,0.0560496449094533
448,5.471,0.0709166079799768
449,5.478,0.0772455159537739
450,5.486,0.0717256334804008
451,5.493,0.0654265788461027
452,5.501,0.062736792957239
453,5.508,0.0611545659637897
454,5.516,0.0619397087926145
455,5.523,0.0601992590998203
456,5.531,0.0590200521896081
457,5.538,0.051347743938354
458,5.546,0.0500341970003962
459,5.553,0.0597842976807836
460,5.561,0.0560466595755034
461,5.568,0.0530852082971984
462,5.576,0.0571900424783168
463,5.584,0.0596380163172383
464,5.591,0.0488579754241339
465,5.599,0.0651907374640603
466,5.606,0.0582050560212842
467,5.614,0.0550286606985861
468,5.621,0.0543629312277574
469,5.629,0.0565870050204361
470,5.636,0.0588588441563133
471,5.644,0.0505805131132286
472,5.651,0.0668893924815559
473,5.659,0.0486430313797407
474,5.666,0.050350642399086
475,5.674,0.0581244520046368
476,5.682,0.0586647974495695
477,5.689,0.0578199479417466
478,5.697,0.0550704553738847
479,5.704,0.0610351526057935
480,5.712,0.0512163892445583
481,5.719,0.0717435454841003
482,5.727,0.0633577424188191
483,5.734,0.0700836998079535
484,5.742,0.0760633237096118
485,5.749,0.0557988768576614
486,5.757,0.0597872830147335
487,5.764,0.0553480914312258
488,5.772,0.0548823793350407
489,5.779,0.0510014452001651
490,5.787,0.0588230201489144
491,5.795,0.056619843693885
492,5.802,0.0570557024505711
493,5.810,0.0550256753646362
494,5.817,0.0437709663734969
495,5.825,0.0567959783969294
496,5.832,0.0625457315844451
497,5.840,0.054094251172266
498,5.847,0.0593305269203982
499,5.855,0.0458786121421294
500,5.862,0.0501356983546929
501,5.870,0.0511596678995101
502,5.877,0.0605455578380092
503,5.885,0.0642234892642913
504,5.893,0.0595006909555427
505,5.900,0.0522940948004737
506,5.908,0.0467801829950005
507,5.915,0.0535598763952331
508,5.923,0.0543539752259077
509,5.930,0.0502282437071399
510,5.938,0.0588379468186639
511,5.945,0.0622442128555048
512,5.953,0.0527717482324584
513,5.960,0.0544405499104549
514,5.968,0.0556675221638656
515,5.975,0.0539808084821696
516,5.983,0.051129814560011
517,5.990,0.0594887496197431
518,5.998,0.0489893301179296
519,6.006,0.0442008544622831
520,6.013,0.0537240697624779
521,6.021,0.0617665594235201
522,6.028,0.0669759671661031
523,6.036,0.0712987307255645
524,6.043,0.0557093168391642
525,6.051,0.0586080761045213
526,6.058,0.0598529603616314
527,6.066,0.062518863578896
528,6.073,0.0728272217079155
529,6.081,0.0619128407870654
530,6.088,0.0689671849106892
531,6.096,0.0550167193627864
532,6.103,0.0741198713082241
533,6.111,0.0713166427292639
534,6.119,0.0534583750409364
535,6.126,0.0723107589345821
536,6.134,0.108170590340833
537,6.141,0.0868791886101151
538,6.149,0.0798278298204411
539,6.156,0.0725674976542738
540,6.164,0.0709733293250249
541,6.171,0.0674506352641379
542,6.179,0.0646832306925766
543,6.186,0.06644756305697
544,6.194,0.0541002218401658
545,6.201,0.0547868486486438
546,6.209,0.0686238715064503
547,6.217,0.0618232807685683
548,6.224,0.0707613706145817
549,6.232,0.0657131709052936
550,6.239,0.0517477786876412
551,6.247,0.0575781358918043
552,6.254,0.067665579308531
553,6.262,0.0557690235181623
554,6.269,0.0653011948202068
555,6.277,0.062175550174657
556,6.284,0.0537001870908786
557,6.292,0.0589872135161592
558,6.299,0.0593484389240976
559,6.307,0.0613247299989342
560,6.314,0.0509536798569667
561,6.322,0.0638533078545032
562,6.330,0.060739604544753
563,6.337,0.087100103322408
564,6.345,0.0706807665979343
565,6.352,0.0605455578380092
566,6.360,0.0516403066654447
567,6.367,0.0723913629512295
568,6.375,0.058617032106371
569,6.382,0.0656534642262955
570,6.390,0.0702269958375489
571,6.397,0.0533807563582389
572,6.405,0.0733406991472991
573,6.412,0.0556137861527673
574,6.420,0.0551301620528828
575,6.428,0.0619815034679132
576,6.435,0.0675103419431359
577,6.443,0.0717256334804008
578,6.450,0.0599186377085293
579,6.458,0.0581095253348873
580,6.465,0.0712449947144662
581,6.473,0.0671610578709971
582,6.480,0.0661788830014786
583,6.488,0.060706765871304
584,6.495,0.0738810445922317
585,6.503,0.095211255664298
586,6.510,0.117437066921336
587,6.518,0.137232816343151
588,6.525,0.134241511725347
589,6.533,0.120004454118253
590,6.541,0.100725167469771
591,6.548,0.100307220716785
592,6.556,0.0861418111244887
593,6.563,0.0843595667563958
594,6.571,0.0975428014791733
595,6.578,0.0982204722858015
596,6.586,0.0779560254338511
597,6.593,0.0848402055223304
598,6.601,0.0698777117654101
599,6.608,0.0622770515289537
600,6.616,0.0776246533654117
601,6.623,0.0755647729399778
602,6.631,0.0685044581484541
603,6.639,0.0691104809402847
604,6.646,0.0659519976212859
605,6.654,0.0685402821558529
606,6.661,0.0594827789518433
607,6.669,0.0684716194750051
608,6.676,0.0660296163039834
609,6.684,0.0683581767849088
610,6.691,0.0635547744595127
611,6.699,0.0704240278782425
612,6.706,0.109254266564648
613,6.714,0.186213190459231
614,6.721,0.15100416185406
615,6.729,0.101880491708384
616,6.736,0.0824131290210582
617,6.744,0.0783441188473387
618,6.752,0.0694955890198223
619,6.759,0.0735496725237924
620,6.767,0.0757588196467215
621,6.774,0.074496023385912
622,6.782,0.0737287925607866
623,6.789,0.0752602688770875
624,6.797,0.0758095703238699
625,6.804,0.0649996760912664
626,6.812,0.0579692146392418
627,6.819,0.0648295120561219
628,6.827,0.0773917973173192
629,6.834,0.0761976637373575
630,6.842,0.0828460024437944
631,6.850,0.0698508437598609
632,6.857,0.0655101681967001
633,6.865,0.0735407165219426
634,6.872,0.0691642169513829
635,6.880,0.0559720262267558
636,6.887,0.0702180398356992
637,6.895,0.0715435281094567
638,6.902,0.0774634453321169
639,6.910,0.0616769994050229
640,6.917,0.0668565538081069
641,6.925,0.0784456202016354
642,6.932,0.0675819899579337
643,6.940,0.078335162845489
644,6.947,0.0720749175525396
645,6.955,0.0666774337711127
646,6.963,0.0789411856373195
647,6.970,0.0731018724313067
648,6.978,0.0596947376622865
649,6.985,0.0704807492232907
650,6.993,0.0615426593772772
651,7.000,0.0632681824003219
652,7.008,0.0746005100741587
653,7.015,0.0709643733231752
654,7.023,0.110502136155708
655,7.030,0.151962454051979
656,7.038,0.126133344717407
657,7.045,0.109170677214051
658,7.053,0.0833146998739293
659,7.060,0.0934230406283053
660,7.068,0.0787441535966259
661,7.076,0.0718838561797458
662,7.083,0.087225487348304
663,7.091,0.0823802903476093
664,7.098,0.0719256508550444
665,7.106,0.082389246349459
666,7.113,0.0780993214634465
667,7.121,0.0812309367768961
668,7.128,0.0742213726625208
669,7.136,0.0812130247731967
670,7.143,0.0727585590270677
671,7.151,0.0937036620195963
672,7.158,0.119658155380064
673,7.166,0.13257271004735
674,7.174,0.132214469973362
675,7.181,0.106743600712778
676,7.189,0.105836059192007
677,7.196,0.0919094763157038
678,7.204,0.0972353120823331
679,7.211,0.0942022127892303
680,7.219,0.11013792541382
681,7.226,0.16159911204227
682,7.234,0.200151714671334
683,7.241,0.170770057936376
684,7.249,0.144224468453827
685,7.256,0.110836493558097
686,7.264,0.0925453524470334
687,7.271,0.105668880490813
688,7.279,0.0975786254865721
689,7.287,0.0990115857825262
690,7.294,0.0873389300384003
691,7.302,0.0886047116331598
692,7.309,0.0831116971653359
693,7.317,0.079114335006414
694,7.324,0.0830072104770892
695,7.332,0.0808637407010579
696,7.339,0.0890196730521965
