#"+EI TIC Scan TOL-Blank.d "
#Point,X(Minutes),Y(Counts)
0,2.095,0.0928354925412268
1,2.102,0.0762852673533659
2,2.110,0.0800856894335413
3,2.117,0.0830437703034386
4,2.125,0.0701753275886717
5,2.132,0.0625468008533351
6,2.140,0.0712074921702803
7,2.147,0.0690640699356756
8,2.155,0.0535776465579783
9,2.162,0.0586989229303271
10,2.170,0.0487055133605005
11,2.177,0.0513630405591247
12,2.185,0.0570458777383257
13,2.193,0.054736360053807
14,2.200,0.0643026670381405
15,2.208,0.0617637794465976
16,2.215,0.0442802560163628
17,2.223,0.0563379947494064
18,2.230,0.0617479608323201
19,2.238,0.104798319588605
20,2.245,0.106336679827095
21,2.253,0.0691273443927857
22,2.260,0.0501489619133247
23,2.268,0.0765225465675288
24,2.275,0.0656393399445913
25,2.283,0.0657698435123809
26,2.291,0.0613762233967983
27,2.298,0.0665054090762859
28,2.306,0.0535301907151457
29,2.313,0.061467180428894
30,2.321,0.0444779886948318
31,2.328,0.0390284760762244
32,2.336,0.0434300054989458
33,2.343,0.0467360958829486
34,2.351,0.054601901832448
35,2.358,0.0716583226771897
36,2.366,0.0526245750477574
37,2.373,0.059984185340376
38,2.381,0.0528578996083509
39,2.388,0.0335750088040475
40,2.396,0.0376838938626347
41,2.404,0.0424650700280167
42,2.411,0.0511653078806557
43,2.419,0.059620357211993
44,2.426,0.0544911715325054
45,2.434,0.048804379699735
46,2.441,0.139437130202816
47,2.449,0.400527313506941
48,2.456,0.184433178515237
49,2.464,0.0517861884910485
50,2.471,0.0504653341988752
51,2.479,0.0202003704323998
52,2.486,0.0379369916910751
53,2.494,0.0432995019311562
54,2.502,0.0432362274740461
55,2.509,0.0551160067964676
56,2.517,0.0786343315735784
57,2.524,0.0734735086655358
58,2.532,0.0831386819891037
59,2.539,0.0617084142966263
60,2.547,0.045423150897914
61,2.554,0.0430424494491464
62,2.562,0.048503826028462
63,2.569,0.0432995019311562
64,2.577,0.047020830939944
65,2.584,0.0429594017241894
66,2.592,0.0502676015204061
67,2.599,0.0463999503295512
68,2.607,0.0365845001703467
69,2.615,0.0339111543574449
70,2.622,0.0382810465516113
71,2.630,0.0381544976373911
72,2.637,0.0484128689963663
73,2.645,0.0638953377204942
74,2.652,0.0603163762402041
75,2.660,0.0511692625342251
76,2.667,0.0413735856428675
77,2.675,0.0500026397312576
78,2.682,0.0404086501719384
79,2.690,0.0338281066324879
80,2.697,0.0399855022400146
81,2.705,0.0384510966550947
82,2.713,0.0318112333121034
83,2.720,0.0367031397774281
84,2.728,0.0454785160478853
85,2.735,0.0293000282955463
86,2.743,0.0432797286633093
87,2.750,0.0553058301677979
88,2.758,0.0719707403091709
89,2.765,0.0531544986260545
90,2.773,0.0540719782541509
91,2.780,0.056820462484871
92,2.788,0.0437384684773575
93,2.795,0.0705905662134568
94,2.803,0.100444246008716
95,2.810,0.0395148984652583
96,2.818,0.0478908547252079
97,2.826,0.0403967862112303
98,2.833,0.0572515197239335
99,2.841,0.0482625921607298
100,2.848,0.0348444525998189
101,2.856,0.0499433199277168
102,2.863,0.0360506219384802
103,2.871,0.0544160331146871
104,2.878,0.0542262097433568
105,2.886,0.0472581101541069
106,2.893,0.0494727161529605
107,2.901,0.0440667047236162
108,2.908,0.0634880084028479
109,2.916,0.0603203308937734
110,2.923,0.0606722950614484
111,2.931,0.0655365189517874
112,2.939,0.0632705024565319
113,2.946,0.0658054353945054
114,2.954,0.0581452714306137
115,2.961,0.0547956798573477
116,2.969,0.0628354905639
117,2.976,0.664464847381021
118,2.984,12.2674777397494
119,2.991,51.8663730468213
120,2.999,100
121,3.006,68.8129375700591
122,3.014,0.408424756684996
123,3.021,0.104715271863648
124,3.029,0.072532301116023
125,3.037,0.0839217033958412
126,3.044,0.0792117109947081
127,3.052,0.056686004263512
128,3.059,0.0887384714433477
129,3.067,0.0908107099137035
130,3.074,0.0608621184327787
131,3.082,0.0675257096971862
132,3.089,0.0681070437718853
133,3.097,0.0447469051375498
134,3.104,0.0315383622158161
135,3.112,0.0479383105680405
136,3.119,0.0381703162516686
137,3.127,0.044604537609052
138,3.134,0.0777998996704389
139,3.142,0.0770682887601034
140,3.150,0.0951450102257455
141,3.157,0.0518652815624362
142,3.165,0.0465779097401733
143,3.172,0.0523675225657476
144,3.180,0.0660466692622376
145,3.187,0.0379765382267689
146,3.195,0.0630569511637853
147,3.202,0.0606999776364341
148,3.210,0.0504851074667221
149,3.217,0.0407447957253359
150,3.225,0.0471434252005949
151,3.232,0.044956501776727
152,3.240,0.0278961262784159
153,3.248,0.041606910203461
154,3.255,0.0314988156801223
155,3.263,0.0357540229207766
156,3.270,0.0551397347178839
157,3.278,0.0600632784117637
158,3.285,0.0357026124243747
159,3.293,0.0424492514137392
160,3.300,0.0299169542523698
161,3.308,0.0488755634639839
162,3.315,0.0736435587690192
163,3.323,0.0517782791839098
164,3.330,0.0495834464529031
165,3.338,0.0341721614930241
166,3.345,0.0239849738982978
167,3.353,0.0360624858991884
168,3.361,0.0398629079793638
169,3.368,0.02652781614341
170,3.376,0.0347060397248906
171,3.383,0.040456106014771
172,3.391,0.0539889305291939
173,3.398,0.0302372811914897
174,3.406,0.0290508851206753
175,3.413,0.0351291876568144
176,3.421,0.036192989466978
177,3.428,0.0352992377602978
178,3.436,0.0265673626791038
179,3.443,0.022078830877856
180,3.451,0.0421368337817581
181,3.459,0.101606914158115
182,3.466,0.282801231400028
183,3.474,0.181364367345397
184,3.481,0.0681861368432729
185,3.489,0.0483219119642705
186,3.496,0.0987556089345906
187,3.504,0.0636699224670394
188,3.511,0.021560771260267
189,3.519,0.0248747709514086
190,3.526,0.0286554197637371
191,3.534,0.0191998430793464
192,3.541,0.0210427116426781
193,3.549,0.0226008451490143
194,3.556,0.0447469051375498
195,3.564,0.0416741393141405
196,3.572,0.0425758003279594
197,3.579,0.0111402591049472
198,3.587,0.0257724773116581
199,3.594,0.0174439768945411
200,3.602,0.0137740583821552
201,3.609,0.0183100460262356
202,3.617,0.0134141849073415
203,3.624,0.0235460073520964
204,3.632,0.0180490388906564
205,3.639,0.018677828808188
206,3.647,0.0255272887903565
207,3.654,0.0253651479940119
208,3.662,0.0171908790661006
209,3.670,0.0252227804655141
210,3.677,0.0167163206377749
211,3.685,0.00289876106635652
212,3.692,0.0171513325304068
213,3.700,0.0206749288607256
214,3.707,0.0278565797427221
215,3.715,0.0170445568840335
216,3.722,0.0107329297873009
217,3.730,0.0167123659842055
218,3.737,0.0295887180061111
219,3.745,0.0311705794338637
220,3.752,0.0026693911593324
221,3.760,0.022494069502641
222,3.767,0.0196704468541027
223,3.775,0.0198523609182943
224,3.783,0.0190891127794037
225,3.790,0.0205681532143523
226,3.798,0.0197614038861985
227,3.805,0.0262312171257064
228,3.813,0.0219720552314827
229,3.820,0.0197020840826578
230,3.828,0.0143751657247011
231,3.835,0.0166016356842628
232,3.843,0.0253018735369018
233,3.850,0.0120419201187662
234,3.858,0.00828104457428451
235,3.865,0.0104679679981524
236,3.873,0.0179580818585606
237,3.880,0.0168665974734114
238,3.888,0.0129554450932932
239,3.896,0.00896915429535686
240,3.903,0.0145887170174477
241,3.911,0.0212127617461615
242,3.918,0.0126707100362978
243,3.926,0.0212048524390227
244,3.933,0.0116662280296749
245,3.941,0.0235815992342209
246,3.948,0.0216398643316546
247,3.956,0.0254323771046913
248,3.963,0.0213907211567836
249,3.971,0.0590311138301551
250,3.978,0.0701199624387004
251,3.986,0.0384194594265396
252,3.994,0.0223319287062964
253,4.001,0.0292051166098811
254,4.009,0.0272475630930374
255,4.016,0.01949644209705
256,4.024,0.020129186668151
257,4.031,0.0182269983012786
258,4.039,0.0196467189326865
259,4.046,0.0201885064716917
260,4.054,0.0210743488712331
261,4.061,0.0264210404970367
262,4.069,0.0260651216757924
263,4.076,0.0118046409046033
264,4.084,0.0221421053349661
265,4.091,0.0293039829491157
266,4.099,0.0352280539960489
267,4.107,0.0376364380198021
268,4.114,0.021446086306755
269,4.122,0.0215489072995589
270,4.129,0.0206393369786012
271,4.137,0.0278170332070283
272,4.144,0.0334405505826885
273,4.152,0.0205760625214911
274,4.159,0.0224228857383921
275,4.167,0.0212997641246879
276,4.174,0.0204574229144096
277,4.182,0.0245939905479825
278,4.189,0.0257052482009787
279,4.197,0.0229330360488423
280,4.205,0.00870419250620831
281,4.212,0.0186343276189248
282,4.220,0.0261283961329025
283,4.227,0.0133350918359538
284,4.235,0.018377275136915
285,4.242,0.0180688121585033
286,4.250,0.0564289517815022
287,4.257,0.328643575576297
288,4.265,0.462105224235778
289,4.272,0.135976808329608
290,4.280,0.0303005556485998
291,4.287,0.0170880580732967
292,4.295,0.015462695456281
293,4.302,0.0252385990797917
294,4.310,0.0177919864086466
295,4.318,0.0133706837180783
296,4.325,0.0166174542985404
297,4.333,0.0129475357861545
298,4.340,0.0202715541966487
299,4.348,0.00875560300261027
300,4.355,0.0175507525409144
301,4.363,0.0183337739476519
302,4.370,0.00989849788416147
303,4.378,0.0117136838725075
304,4.385,0.0158858433882048
305,4.393,0.0154468768420035
306,4.400,0.0157830223954009
307,4.408,0.0155022419919748
308,4.416,0.086397316530274
309,4.423,0.156695238379597
310,4.431,0.0726707139909513
311,4.438,0.0315106796408305
312,4.446,0.0271328781395253
313,4.453,0.0200065924075002
314,4.461,0.019694174775519
315,4.468,0.0236132364627759
316,4.476,0.0237674679519818
317,4.483,0.0116741373368137
318,4.491,0.00911547647742397
319,4.498,0.0297864506845802
320,4.506,0.0257803866187969
321,4.513,0.0160044829952862
322,4.521,0.0294384411704746
323,4.529,0.0272119712109129
324,4.536,0.0265950452540895
325,4.544,0.0142881633461748
326,4.551,0.0116583187225362
327,4.559,0.0264724509934386
328,4.566,0.00456367021906606
329,4.574,0.0151819150528549
330,4.581,0.0251120501655715
331,4.589,0.0189230173294897
332,4.596,0.0313524934980552
333,4.604,0.0164197216200713
334,4.611,0.0179027167085893
335,4.619,0.0253176921511793
336,4.626,0.0180846307727808
337,4.634,0.0300672310880063
338,4.642,0.0196546282398252
339,4.649,0.0194173490256623
340,4.657,0.0148576334601657
341,4.664,0.0140587934391506
342,4.672,0.0208726615391947
343,4.679,0.0142209342354953
344,4.687,0.0231070408058951
345,4.694,0.0221460599885355
346,4.702,0.0185512798939678
347,4.709,0.0214223583853387
348,4.717,0.0201964157788305
349,4.724,0.0195122607113275
350,4.732,0.0216556829459322
351,4.740,0.0165185879593058
352,4.747,0.0150000009886634
353,4.755,0.0231900885308521
354,4.762,0.0149485904922614
355,4.770,0.00470603774756378
356,4.777,0.0137542851143083
357,4.785,0.0209873464927067
358,4.792,0.0183851844440538
359,4.800,0.0327208036330611
360,4.807,0.0212997641246879
361,4.815,0.0270063292253051
362,4.822,0.0187925137617001
363,4.830,0.0262628543542614
364,4.837,0.0201450052824285
365,4.845,0.0276865296392387
366,4.853,0.0162773540915736
367,4.860,0.00971658381996993
368,4.868,0.0152689174313813
369,4.875,0.00947534995223767
370,4.883,0.0143870296854093
371,4.890,0.00725678929981474
372,4.898,0.0193461652614135
373,4.905,0.0191919337722076
374,4.913,0.0207342486642663
375,4.920,0.022545479999043
376,4.928,0.00367387316595526
377,4.935,0.00257052482009787
378,4.943,0.0109385717729088
379,4.951,0.0246968115407864
380,4.958,0.0349789108211779
381,4.966,0.0382533639766256
382,4.973,0.0264091765363285
383,4.981,0.0114131302012345
384,4.988,0.0182744541441111
385,4.996,0.0317835507371178
386,5.003,0.023894016866202
387,5.011,0.017827578290771
388,5.018,0.0183575018690681
389,5.026,0.0128249415255037
390,5.033,0.0159332992310374
391,5.041,0.017878988787173
392,5.048,0.0141102039355526
393,5.056,0.019413394372093
394,5.064,0.0216319550245159
395,5.071,0.0303519661450017
396,5.079,0.0303915126806955
397,5.086,0.015763249127554
398,5.094,0.0188597428723796
399,5.101,0.02422620776603
400,5.109,0.0234985515092639
401,5.116,0.0169061440091052
402,5.124,0.0242815729160014
403,5.131,0.0255193794832177
404,5.139,0.0144423948353806
405,5.146,0.0239335634018958
406,5.154,0.0286237825351821
407,5.162,0.0299802287094799
408,5.169,0
409,5.177,0.0186857381153268
410,5.184,0.0171829697589619
411,5.192,0.0161943063666166
412,5.199,0.0112193521763348
413,5.207,0.0165897717235547
414,5.214,0.0205088334108116
415,5.222,0.0280859496497462
416,5.229,0.0186264183117861
417,5.237,0.0134774593644516
418,5.244,0.025792250579505
419,5.252,0.0157434758597071
420,5.259,0.0293237562169626
421,5.267,0.0135486431287004
422,5.275,0.0240917495446711
423,5.282,0.0320603764869745
424,5.290,0.032159242826209
425,5.297,0.0156525188276113
426,5.305,0.0076680732710304
427,5.312,0.0118797793224215
428,5.320,0.0230042198130912
429,5.327,0.0270181931860133
430,5.335,0.0220471936493009
431,5.342,0.0240640669696854
432,5.350,0.0277379401356407
433,5.357,0.0170208289626173
434,5.365,0.0237081481484411
435,5.373,0.024961773329935
436,5.380,0.0111916696013492
437,5.388,0.0133548651038008
438,5.395,0.026642501096922
439,5.403,0.0232138164522684
440,5.410,0.0295017156275847
441,5.418,0.0147666764280699
442,5.425,0.0204692868751178
443,5.433,0.0135525977822698
444,5.440,0.0187055113831737
445,5.448,0.0173253372874596
446,5.455,0.0227629859453589
447,5.463,0.0137542851143083
448,5.470,0.036722913045275
449,5.478,0.0275243888428941
450,5.486,0.0323569755046781
451,5.493,0.0309965746768109
452,5.501,0.0294858970133072
453,5.508,0.0180885854263502
454,5.516,0.0167005020234974
455,5.523,0.0146480368209885
456,5.531,0.0227788045596365
457,5.538,0.0137424211536001
458,5.546,0.0195478525934519
459,5.553,0.0123938842864411
460,5.561,0.0185315066261209
461,5.568,0.0127814403362405
462,5.576,0.0219799645386214
463,5.583,0.0157672037811234
464,5.591,0.0218929621600951
465,5.599,0.0256459283974379
466,5.606,0.00894542637394057
467,5.614,0.0266464557504914
468,5.621,0.0225415253454736
469,5.629,0.0316016366729262
470,5.636,0.0193817571435379
471,5.644,0.0262470357399839
472,5.651,0.0218929621600951
473,5.659,0.0188795161402265
474,5.666,0.0134932779787291
475,5.674,0.0182665448369724
476,5.681,0.0205641985607829
477,5.689,0.0263221741578021
478,5.697,0.0260769856365005
479,5.704,0.0296203552346662
480,5.712,0.0265238614898406
481,5.719,0.0333258656291765
482,5.727,0.0417057765426955
483,5.734,0.041223308807231
484,5.742,0.0312180352766962
485,5.749,0.0206986567821419
486,5.757,0.0292723457205606
487,5.764,0.0334721878112436
488,5.772,0.0320524671798357
489,5.779,0.0198642248790024
490,5.787,0.0202240983538161
491,5.794,0.0179818097799769
492,5.802,0.0199907737932226
493,5.810,0.0240996588518098
494,5.817,0.0263221741578021
495,5.825,0.0258238878080601
496,5.832,0.0296954936524844
497,5.840,0.0235183247771108
498,5.847,0.0246849475800783
499,5.855,0.0254640143332464
500,5.862,0.0155101512991136
501,5.870,0.0212048524390227
502,5.877,0.0224545229669472
503,5.885,0.0208331150035009
504,5.892,0.0172857907517658
505,5.900,0.0145728984031702
506,5.908,0.0169535998519378
507,5.915,0.0384590059622335
508,5.923,0.0223002914777413
509,5.930,0.0251911432369591
510,5.938,0.0210427116426781
511,5.945,0.030790932691203
512,5.953,0.0180411295835176
513,5.960,0.0296322191953743
514,5.968,0.0190100197080161
515,5.975,0.0136000536251024
516,5.983,0.0254956515618014
517,5.990,0.0221816518706599
518,5.998,0.0197851318076148
519,6.005,0.0208924348070416
520,6.013,0.0221539692956742
521,6.021,0.0390601133047794
522,6.028,0.0383245477408745
523,6.036,0.027077512989554
524,6.043,0.0267295034754484
525,6.051,0.0234510956664313
526,6.058,0.022494069502641
527,6.066,0.0277181668677938
528,6.073,0.0220195110743153
529,6.081,0.0334445052362579
530,6.088,0.0270300571467214
531,6.096,0.0298180879131352
532,6.103,0.0295214888954316
533,6.111,0.0281175868783013
534,6.119,0.0368494619594952
535,6.126,0.0476575301646144
536,6.134,0.0738847926367514
537,6.141,0.0587661520410066
538,6.149,0.0532929115009828
539,6.156,0.0383047744730276
540,6.164,0.0378499893125487
541,6.171,0.0326377559081041
542,6.179,0.0367782781952464
543,6.186,0.0349710015140391
544,6.194,0.0300949136629919
545,6.201,0.0313208562695001
546,6.209,0.0314790424122754
547,6.216,0.0326970757116449
548,6.224,0.0341128416894834
549,6.232,0.0382415000159175
550,6.239,0.0362364906562411
551,6.247,0.0328473525472813
552,6.254,0.0310756677481985
553,6.262,0.0261560787078881
554,6.269,0.0281966799496889
555,6.277,0.0325547081831471
556,6.284,0.0216517282923628
557,6.292,0.0208687068856253
558,6.299,0.0289559734350101
559,6.307,0.0396019008437847
560,6.314,0.0226087544561531
561,6.322,0.0329897200757791
562,6.329,0.0267215941683097
563,6.337,0.027409703889382
564,6.345,0.0323095196618455
565,6.352,0.0293870306740727
566,6.360,0.0283865033210192
567,6.367,0.0248431337228535
568,6.375,0.0246454010443845
569,6.382,0.0299683647487717
570,6.390,0.025044821054892
571,6.397,0.0240442937018385
572,6.405,0.0274532050786452
573,6.412,0.031744004201424
574,6.420,0.0383324570480132
575,6.427,0.0264012672291898
576,6.435,0.0247284487693415
577,6.443,0.0317084123192995
578,6.450,0.0191009767401118
579,6.458,0.021778277206583
580,6.465,0.0153242825813527
581,6.473,0.0267413674361566
582,6.480,0.0212760362032716
583,6.488,0.0291734793813261
584,6.495,0.0331044050292911
585,6.503,0.0350896411211206
586,6.510,0.0298694984095372
587,6.518,0.0406459293861013
588,6.525,0.0302254172307815
589,6.533,0.0263419474256491
590,6.540,0.0199710005253757
591,6.548,0.0246651743122314
592,6.556,0.0332823644399133
593,6.563,0.0319496461870318
594,6.571,0.0257764319652275
595,6.578,0.0247126301550639
596,6.586,0.0242697089552932
597,6.593,0.0246414463908151
598,6.601,0.0336106006861719
599,6.608,0.0355009250923362
600,6.616,0.0238861075590632
601,6.623,0.0366359106667487
602,6.631,0.0226166637632918
603,6.638,0.0233403653664886
604,6.646,0.0236725562663167
605,6.654,0.0185670985082454
606,6.661,0.0195083060577581
607,6.669,0.0241866612303362
608,6.676,0.0272119712109129
609,6.684,0.0363709488776001
610,6.691,0.0144384401818112
611,6.699,0.0368059607702321
612,6.706,0.0276509377571143
613,6.714,0.0321157416369458
614,6.721,0.0265673626791038
615,6.729,0.0235025061628333
616,6.736,0.0260651216757924
617,6.744,0.0326733477902286
618,6.751,0.034025839310957
619,6.759,0.0281373601461482
620,6.767,0.032325338276123
621,6.774,0.0254481957189689
622,6.782,0.0248826802585473
623,6.789,0.0274057492358126
624,6.797,0.0281373601461482
625,6.804,0.0303875580271262
626,6.812,0.0258476157294764
627,6.819,0.0266029545612282
628,6.827,0.0380556312981566
629,6.834,0.0233799119021824
630,6.842,0.0256696563188542
631,6.849,0.0375771182162614
632,6.857,0.0228064871346221
633,6.865,0.0339902474288325
634,6.872,0.0242024798446137
635,6.880,0.0487450598961943
636,6.887,0.0348721351748046
637,6.895,0.0348919084426515
638,6.902,0.0280226751926361
639,6.910,0.0320841044083907
640,6.917,0.0234669142807088
641,6.925,0.0241589786553506
642,6.932,0.0331162689899993
643,6.940,0.0333851854327172
644,6.947,0.0327998967044488
645,6.955,0.0322501998583048
646,6.962,0.0286119185744739
647,6.970,0.0323530208511087
648,6.978,0.0299129995988004
649,6.985,0.0346862664570437
650,6.993,0.045174007723043
651,7.000,0.0366042734381936
652,7.008,0.0264368591113142
653,7.015,0.0464750887473694
654,7.023,0.079429216941024
655,7.030,0.141216724309038
656,7.038,0.112652261577397
657,7.045,0.0790812074269185
658,7.053,0.0656314306374526
659,7.060,0.0521104700837378
660,7.068,0.0403967862112303
661,7.076,0.0534115511080643
662,7.083,0.0326456652152429
663,7.091,0.0376957578233429
664,7.098,0.0523002934550681
665,7.106,0.0472422915398294
666,7.113,0.0484247329570744
667,7.121,0.041907463874734
668,7.128,0.0400883232328186
669,7.136,0.0443988956234442
670,7.143,0.043141315788381
671,7.151,0.0462575828010534
672,7.158,0.0613722687432289
673,7.166,0.0997680002483522
674,7.173,0.0841273453814491
675,7.181,0.0573978419060006
676,7.189,0.0662760391692617
677,7.196,0.0522172457301111
678,7.204,0.0511099427306843
679,7.211,0.0645794927879971
680,7.219,0.0674901178150618
681,7.226,0.15641841262974
682,7.234,0.200473253392648
683,7.241,0.155421839930256
684,7.249,0.119450311063163
685,7.256,0.098676515863203
686,7.264,0.0815845031363369
687,7.271,0.0801885104263453
688,7.279,0.070717115127677
689,7.286,0.0594740350299258
690,7.294,0.0629106289817182
691,7.302,0.0638557911848004
692,7.309,0.0484840527606151
693,7.317,0.0456287928835218
694,7.324,0.0684313253645746
