#"+EI TIC Scan TOL-PEEK.d "
#Point,X(Minutes),Y(Counts)
0,2.095,0.0809335924640283
1,2.102,0.0796544963844466
2,2.110,0.0720470444825613
3,2.117,0.0702906180875671
4,2.125,0.0814109227794407
5,2.132,0.0610945512296999
6,2.140,0.0711483209980738
7,2.147,0.0599124128704363
8,2.155,0.0481395081379598
9,2.162,0.0661214361138868
10,2.170,0.0523795438303341
11,2.178,0.0570894515519426
12,2.185,0.0491277310565871
13,2.193,0.0591665842526044
14,2.200,0.0536660981960942
15,2.208,0.0452382348145937
16,2.215,0.0409720951205953
17,2.223,0.0615122152556857
18,2.230,0.110811486894374
19,2.238,0.121044255531028
20,2.245,0.07400484460437
21,2.253,0.0610647180849866
22,2.260,0.0637720759677164
23,2.268,0.0628174153368915
24,2.275,0.0629292896295663
25,2.283,0.0709096558403676
26,2.291,0.0585550047859822
27,2.298,0.0357438365095937
28,2.306,0.0528606032888357
29,2.313,0.0521483369588062
30,2.321,0.0411212608441617
31,2.328,0.0360160639551023
32,2.336,0.042228816341642
33,2.343,0.0488890658988809
34,2.351,0.0710215301330424
35,2.358,0.0525100638384547
36,2.366,0.0577196767340105
37,2.373,0.0498325391004382
38,2.381,0.0365754354184762
39,2.389,0.0401852459287826
40,2.396,0.0440225341675277
41,2.404,0.0391709190085312
42,2.411,0.0446080096325258
43,2.419,0.0692800203104049
44,2.426,0.0454433376844975
45,2.434,0.0701824729379815
46,2.441,0.313665683515383
47,2.449,0.302284338807268
48,2.456,0.0782411511536552
49,2.464,0.0433923089854598
50,2.471,0.0350651324673666
51,2.479,0.0437652232943757
52,2.486,0.040591722525501
53,2.494,0.042743438087946
54,2.502,0.0531402890205227
55,2.509,0.0815712759322746
56,2.517,0.0765033704741069
57,2.524,0.0822686256899474
58,2.532,0.0805644072982015
59,2.539,0.0513055506206562
60,2.547,0.0409534494051495
61,2.554,0.038275924667133
62,2.562,0.039540104174358
63,2.569,0.0491090853411413
64,2.577,0.0562951440739516
65,2.584,0.0465471640388887
66,2.592,0.0296280418433721
67,2.600,0.0448615913625886
68,2.607,0.0569104526836629
69,2.615,0.0393014390166518
70,2.622,0.0431014358245053
71,2.630,0.0378806354996821
72,2.637,0.057708489304743
73,2.645,0.0669940555967502
74,2.652,0.0530806227310961
75,2.660,0.0460474588649413
76,2.667,0.0462600200210234
77,2.675,0.0386003601158898
78,2.682,0.0377016366314024
79,2.690,0.0399614973434331
80,2.697,0.0498661013882406
81,2.705,0.0369595371566597
82,2.713,0.0398831853385607
83,2.720,0.0427695420895701
84,2.728,0.0536511816237375
85,2.735,0.0550384228529048
86,2.743,0.0422362746278203
87,2.750,0.0646409663074905
88,2.758,0.0718568581850141
89,2.765,0.0609640312215793
90,2.773,0.0571491178413691
91,2.780,0.0423854403513867
92,2.788,0.047841176690827
93,2.795,0.0811386953339321
94,2.803,0.0720134821947588
95,2.810,0.0491538350582112
96,2.818,0.0553740457309292
97,2.826,0.0560527497731562
98,2.833,0.0494782705069681
99,2.841,0.0506417631507858
100,2.848,0.042508502073329
101,2.856,0.0400808299222861
102,2.863,0.0437428484358408
103,2.871,0.0400621842068404
104,2.878,0.0431573729708427
105,2.886,0.0394729795987532
106,2.893,0.0470841606437277
107,2.901,0.0426091889367363
108,2.908,0.0624221261694406
109,2.916,0.0512235094726947
110,2.924,0.0581000493291048
111,2.931,0.0533714958920506
112,2.939,0.0492060430614594
113,2.946,0.0630896427824002
114,2.954,0.0587116287957269
115,2.961,0.0473601172323255
116,2.969,0.0812431113404286
117,2.976,2.36285591501014
118,2.984,22.4575821161037
119,2.991,63.1619359503266
120,2.999,100
121,3.006,18.5639987332847
122,3.014,0.179506031739781
123,3.021,0.103412867005482
124,3.029,0.074612694927903
125,3.037,0.0639175125481936
126,3.044,0.0534087873229422
127,3.052,0.0673334076178637
128,3.059,0.091636233129916
129,3.067,0.0737438045881288
130,3.074,0.0653569617806092
131,3.082,0.0638503879725887
132,3.089,0.0559371463373923
133,3.097,0.056843328108058
134,3.104,0.060303972894798
135,3.112,0.0522527529653027
136,3.119,0.0521222329571821
137,3.127,0.0689518557185589
138,3.135,0.0720656901980071
139,3.142,0.0908344673657468
140,3.150,0.0949588996223571
141,3.157,0.0502054534093542
142,3.165,0.0373809303257347
143,3.172,0.0650474429042089
144,3.180,0.0597184974298
145,3.187,0.0480089881298392
146,3.195,0.0653159412066284
147,3.202,0.0552211508642737
148,3.210,0.0417999648863887
149,3.217,0.0431126232537728
150,3.225,0.0395885830345171
151,3.232,0.0393200847320976
152,3.240,0.029251398391367
153,3.248,0.031660424826964
154,3.255,0.0265887902257071
155,3.263,0.0531775804514143
156,3.270,0.0617173181255895
157,3.278,0.0550123188512807
158,3.285,0.0441008461724001
159,3.293,0.0359601268087649
160,3.300,0.0417030071660705
161,3.308,0.054176990799309
162,3.315,0.066453329848822
163,3.323,0.0504403894239712
164,3.330,0.0484452978712709
165,3.338,0.0366201851355462
166,3.346,0.0372988891777732
167,3.353,0.0298107698547409
168,3.361,0.0280729891751926
169,3.368,0.0266111650842421
170,3.376,0.0336405998073077
171,3.383,0.0307989927733682
172,3.391,0.0185785908701926
173,3.398,0.022307733959352
174,3.406,0.0294900635490732
175,3.413,0.0332080192089652
176,3.421,0.0231989991576612
177,3.428,0.0226433568373764
178,3.436,0.0208235350098666
179,3.443,0.0302358921669051
180,3.451,0.0409161579742579
181,3.459,0.154032255297733
182,3.466,0.229752505723116
183,3.474,0.112526892715387
184,3.481,0.0443656153317304
185,3.489,0.0492880842094209
186,3.496,0.0907412387885178
187,3.504,0.0478784681217186
188,3.511,0.0242207843640909
189,3.519,0.0245899695299176
190,3.526,0.0204692664163964
191,3.534,0.0232064574438395
192,3.541,0.0228969385674392
193,3.549,0.0251642575656482
194,3.556,0.0233668105966733
195,3.564,0.0349868204624943
196,3.572,0.0194623977823234
197,3.579,0.0173815359385724
198,3.587,0.0249069466924962
199,3.594,0.0217819247837806
200,3.602,0.0246086152453634
201,3.609,0.0270325582533171
202,3.617,0.0179036159710547
203,3.624,0.0157332546931639
204,3.632,0.0252910484306796
205,3.639,0.0220877145170916
206,3.647,0.0131377711031089
207,3.654,0.0180490525515319
208,3.662,0.0165685827451356
209,3.670,0.0226508151235547
210,3.677,0.0168706433353575
211,3.685,0.0157108798346289
212,3.692,0.0210025338781462
213,3.700,0.0209801590196113
214,3.707,0.022587419691039
215,3.715,0.0179483656881246
216,3.722,0.0149986135045995
217,3.730,0.025790753604627
218,3.737,0.0185002788653202
219,3.745,0.0162255015809329
220,3.752,0.0128953768023135
221,3.760,0.0204729955594856
222,3.767,0.0211703453171584
223,3.775,0.023545809464953
224,3.783,0.0219348196504361
225,3.790,0.0251418827071133
226,3.798,0.0207787852927967
227,3.805,0.0243960540892814
228,3.813,0.0201075395367479
229,3.820,0.0150657380802043
230,3.828,0.0239783900632955
231,3.835,0.0216215716309467
232,3.843,0.0161397312898823
233,3.850,0.016508916455709
234,3.858,0.019734625227832
235,3.865,0.0214761350504695
236,3.873,0.0262606256338611
237,3.881,0.0123807550560095
238,3.888,0.0248286346876239
239,3.896,0.0112284498414592
240,3.903,0.018283988566149
241,3.911,0.016344834159786
242,3.918,0.0186680903043324
243,3.926,0.032175046573268
244,3.933,0.0143087220331049
245,3.941,0.0116871344414258
246,3.948,0.0107063698089769
247,3.956,0.0186233405872625
248,3.963,0.0353970262023018
249,3.971,0.0783791294479541
250,3.978,0.0445558016292775
251,3.986,0.00926319143347216
252,3.994,0.0112284498414592
253,4.001,0.00727555816695016
254,4.009,0.0268386428126808
255,4.016,0.0148308020655873
256,4.024,0.0192237326246171
257,4.031,0.017418827369464
258,4.039,0.0114559275698979
259,4.046,0.0156362969728457
260,4.054,0.0239261820600473
261,4.061,0.0196675006522271
262,4.069,0.0250449249867951
263,4.076,0.0172137244995602
264,4.084,0.0279573857394287
265,4.092,0.0348488421681954
266,4.099,0.0249330506941203
267,4.107,0.0221212768048941
268,4.114,0.0188806514604145
269,4.122,0.0229491465706875
270,4.129,0.0148680934964789
271,4.137,0.0188433600295229
272,4.144,0.0114186361390063
273,4.152,0.0259399193281934
274,4.159,0.0169191221955166
275,4.167,0.0169414970540515
276,4.174,0.0118959664544188
277,4.182,0.0235495386080422
278,4.189,0.0151925289452357
279,4.197,0.0157444421224313
280,4.205,0.0217707373545131
281,4.212,0.020879472156204
282,4.220,0.0139619117258131
283,4.227,0.0226694608390005
284,4.235,0.01557290154033
285,4.242,0.0297511035653144
286,4.250,0.130378300683194
287,4.257,0.451498541233806
288,4.265,0.303843120618537
289,4.272,0.0670686384585334
290,4.280,0.0170832044914396
291,4.287,0.015759358694788
292,4.295,0.0184107794311804
293,4.303,0.0105982246593913
294,4.310,0.0119556327438453
295,4.318,0.0175045976605146
296,4.325,0.016180751863863
297,4.333,0.0189813383238218
298,4.340,0.0034979362176316
299,4.348,0.0166058741760272
300,4.355,0.0203126424066517
301,4.363,0.0107697652414926
302,4.370,0.00393797510215242
303,4.378,0.0171279542085095
304,4.385,0.0179036159710547
305,4.393,0.0158115666980362
306,4.400,0.015923440990711
307,4.408,0.0262046884875237
308,4.416,0.107794610135244
309,4.423,0.13847054118667
310,4.431,0.0411138025579833
311,4.438,0.0208011601513316
312,4.446,0.0187911520262746
313,4.453,0.0193430652034703
314,4.461,0.0245228449543128
315,4.468,0.0236502254714495
316,4.476,0.0161956684362196
317,4.483,0.011620009865821
318,4.491,0.0224568996829184
319,4.498,0.0168519976199117
320,4.506,0.0123397344820287
321,4.513,0.0285652360629617
322,4.521,0.0127462110787471
323,4.529,0.013070646527504
324,4.536,0.0161658352915064
325,4.544,0.0193691692050944
326,4.551,0.0178103873938257
327,4.559,0.0110158886853771
328,4.566,0.0110718258317145
329,4.574,0.0079617204953555
330,4.581,0.0192945863433112
331,4.589,0.0250150918420818
332,4.596,0.0172771199320759
333,4.604,0.0169265804816949
334,4.611,0
335,4.619,0.0167028318963453
336,4.627,0.0158041084118579
337,4.634,0.013958182582724
338,4.642,0.0144616168997605
339,4.649,0.00530657061587395
340,4.657,0.0214313853333996
341,4.664,0.0259026278973018
342,4.672,0.0134845814104007
343,4.679,0.0183361965693972
344,4.687,0.0196824172245838
345,4.694,0.0158451289858387
346,4.702,0.00980764632448945
347,4.709,0.022658273409733
348,4.717,0.00499332259638455
349,4.724,0.012813335654352
350,4.732,0.0264172496436058
351,4.740,0.011411177852828
352,4.747,0.0189477760360193
353,4.755,0.00994189547569919
354,4.762,0.0112508246999942
355,4.770,0.0176127428101003
356,4.777,0.00916996285624318
357,4.785,0.0166729987516321
358,4.792,0.0196264800782464
359,4.800,0.0183250091401297
360,4.807,0.0235607260373096
361,4.815,0.0106653492349961
362,4.822,0.0152372786623057
363,4.830,0.00369558080135705
364,4.838,0.0138612248624058
365,4.845,0.0163821255906776
366,4.853,0.013141500246198
367,4.860,0.0113440532772232
368,4.868,0.0148121563501415
369,4.875,0.0131116671014848
370,4.883,0.00994935376187751
371,4.890,0.01903354632707
372,4.898,0.0140476820168638
373,4.905,0.0167624981857719
374,4.913,0.0138910580071191
375,4.920,0.0142602431729459
376,4.928,0.0217632790683348
377,4.935,0.0178253039661823
378,4.943,0.0144056797534231
379,4.951,0.00776780505471921
380,4.958,0.0313583642367421
381,4.966,0.0382013418053498
382,4.973,0.0202231429725119
383,4.981,0.0163075427288944
384,4.988,0.0143870340379773
385,4.996,0.00259921273314416
386,5.003,0.012369567626742
387,5.011,0.0141446397371819
388,5.018,0.0156698592606482
389,5.026,0.00885298569366462
390,5.033,0.0137232465681069
391,5.041,0.0121868396153732
392,5.049,0.00997918690659078
393,5.056,0.0310674910757877
394,5.064,0.0244408038063513
395,5.071,0.012835710512887
396,5.079,0.0177544502474883
397,5.086,0.0145399289046328
398,5.094,0.00777899248398669
399,5.101,0.0129102933746701
400,5.109,0.00959508516840736
401,5.116,0.00546692376870781
402,5.124,0.0102402269228319
403,5.131,0.0101805606334054
404,5.139,0.00820784393924003
405,5.146,0.0112359081276375
406,5.154,0.0145921369078811
407,5.162,0.0103521012155067
408,5.169,0.0159420867061568
409,5.177,0.0111501378365869
410,5.184,0.0126678990738748
411,5.192,0.017396452510929
412,5.199,0.0189552343221977
413,5.207,0.0168445393337334
414,5.214,0.0286547354971015
415,5.222,0.00866279939611748
416,5.229,0.0166282490345621
417,5.237,0.0120525904641635
418,5.244,0.0112769287016183
419,5.252,0.0180192194068186
420,5.259,0.019898707523755
421,5.267,0.0102663309244561
422,5.275,0.0110084303991988
423,5.282,0.0168967473369816
424,5.290,0.0107809526707601
425,5.297,0.0126156910706265
426,5.305,0.0170608296329046
427,5.312,0.014263972316035
428,5.320,0.0068019569946269
429,5.327,0.0126902739324097
430,5.335,0.00844650909694624
431,5.342,0.0138761414347624
432,5.350,0.00606731580606248
433,5.357,0.00671245756048707
434,5.365,0.0136896842803045
435,5.373,0.0163821255906776
436,5.380,0.0215917384862334
437,5.388,0.0227664185593187
438,5.395,0.0169564136264082
439,5.403,0.0128394396559761
440,5.410,0.0111277629780519
441,5.418,0.0191155874750315
442,5.425,0.0143422843209074
443,5.433,0.0143012637469266
444,5.440,0.013350332259191
445,5.448,0.00524317518335824
446,5.455,0.0192498366262413
447,5.463,0.0145324706184545
448,5.470,0.0293558143978635
449,5.478,0.0215059681951828
450,5.486,0.0240305980665437
451,5.493,0.00642158439953263
452,5.501,0.0193169612018461
453,5.508,0.0194586686392342
454,5.516,0.0132608328250511
455,5.523,0.0149314889289946
456,5.531,0.0169079347662491
457,5.538,0.0184741748636961
458,5.546,0.0180341359791753
459,5.553,0.0165275621711548
460,5.561,0.0110382635439121
461,5.568,0.0137008717095719
462,5.576,0.0191640663351906
463,5.584,0.0190820251872291
464,5.591,0.0110047012561096
465,5.599,0.0166468947500079
466,5.606,0.0193505234896486
467,5.614,0.00951304402044585
468,5.621,0.0141782020249844
469,5.629,0.0109338475374156
470,5.636,0.0139693700119914
471,5.644,0.0138537665762275
472,5.651,0.0154274649598528
473,5.659,0.0179595531173921
474,5.666,0.0138388500038709
475,5.674,0.00677958213609195
476,5.681,0.0108890978203457
477,5.689,0.0106429743764612
478,5.697,0.0182466971352574
479,5.704,0.00774543019618425
480,5.712,0.0168072479028418
481,5.719,0.0183399257124864
482,5.727,0.026491832505389
483,5.734,0.0226843774113572
484,5.742,0.0195183349286607
485,5.749,0.0137530797128202
486,5.757,0.016203126722398
487,5.764,0.0146331574818618
488,5.772,0.0212523864651199
489,5.779,0.0103893926463983
490,5.787,0.0187016525921348
491,5.795,0.00735014102873335
492,5.802,0.0196973337969404
493,5.810,0.0219497362227927
494,5.817,0.0106317869471937
495,5.825,0.0118624041666163
496,5.832,0.0160912524297232
497,5.840,0.0179893862621054
498,5.847,0.00944591944484098
499,5.855,0.0162888970134486
500,5.862,0.0129625013779184
501,5.870,0.00934896172452283
502,5.877,0.0109711389683072
503,5.885,0.017653763384081
504,5.892,0.0148643643533897
505,5.900,0.00789086677666147
506,5.908,0.00928929543509628
507,5.915,0.0134174568347958
508,5.923,0.017116766779242
509,5.930,0.0136300179908779
510,5.938,0.0176015553808328
511,5.945,0.0168519976199117
512,5.953,0.0141595563095386
513,5.960,0.0144243254688689
514,5.968,0.0186270697303516
515,5.975,0.0120078407470935
516,5.983,0.0101917480626729
517,5.990,0.0162441472963787
518,5.998,0.0186755485905107
519,6.005,0.0119929241747369
520,6.013,0.01082570238783
521,6.021,0.0210622001675728
522,6.028,0.0132869368266752
523,6.036,0.0121570064706599
524,6.043,0.0143870340379773
525,6.051,0.0170794753483504
526,6.058,0.0145361997615437
527,6.066,0.0165499370296898
528,6.073,0.012391942485277
529,6.081,0.0100649571976415
530,6.088,0.0201373726814612
531,6.096,0.0229491465706875
532,6.103,0.0234600391739023
533,6.111,0.0131377711031089
534,6.119,0.0173517027938591
535,6.126,0.0204170584131482
536,6.134,0.0272264736939534
537,6.141,0.0306759310514259
538,6.149,0.0172584742166301
539,6.156,0.0276180337183152
540,6.164,0.0218266745008505
541,6.171,0.0185823200132817
542,6.179,0.0191789829075472
543,6.186,0.0210845750261077
544,6.194,0.0198464995205068
545,6.201,0.0235756426096663
546,6.209,0.0213456150423489
547,6.216,0.0142117643127868
548,6.224,0.00993070804643171
549,6.232,0.0180639691238885
550,6.239,0.0147599483468932
551,6.247,0.0152969449517322
552,6.254,0.0175381599483171
553,6.262,0.0176015553808328
554,6.269,0.020271621832671
555,6.277,0.0101134360578005
556,6.284,0.0207042024310135
557,6.292,0.0128096065112628
558,6.299,0.0178103873938257
559,6.307,0.012884189373046
560,6.314,0.0156288386866674
561,6.322,0.0139805574412589
562,6.330,0.0189104846051278
563,6.337,0.01299979280881
564,6.345,0.0109263892512373
565,6.352,0.0109002852496132
566,6.360,0.010146998345603
567,6.367,0.026118918196473
568,6.375,0.0116945927276041
569,6.382,0.0188508183157012
570,6.390,0.015080654652561
571,6.397,0.0125895870690024
572,6.405,0.0139842865843481
573,6.412,0.0184406125758937
574,6.420,0.0103931217894875
575,6.427,0.0179670114035704
576,6.435,0.013585268273808
577,6.443,0.0269691628208014
578,6.450,0.0129513139486509
579,6.458,0.0198502286635959
580,6.465,0.00976662575050869
581,6.473,0.0246086152453634
582,6.480,0.0205587658505362
583,6.488,0.0193505234896486
584,6.495,0.021300865325279
585,6.503,0.0125038167779518
586,6.510,0.0139246202949215
587,6.518,0.0175493473775845
588,6.525,0.017489681088158
589,6.533,0.0246720106778792
590,6.541,0.0211218664569993
591,6.548,0.0145772203355244
592,6.556,0.0173666193662157
593,6.563,0.0172696616458976
594,6.571,0.0140775151615771
595,6.578,0.0126156910706265
596,6.586,0.0173852650816615
597,6.593,0.0179036159710547
598,6.601,0.0210099921643245
599,6.608,0.015315590667178
600,6.616,0.013656121992502
601,6.623,0.0131899791063571
602,6.631,0.0180565108377102
603,6.638,0.0184294251466262
604,6.646,0.0192311909107955
605,6.654,0.0220392356569326
606,6.661,0.024038056352722
607,6.669,0.00877094454570311
608,6.676,0.0159122535614435
609,6.684,0.00836073880589557
610,6.691,0.0128730019437785
611,6.699,0.0223823168211352
612,6.706,0.00737997417344662
613,6.714,0.00871500739936572
614,6.721,0.021815487071583
615,6.729,0.0205848698521604
616,6.736,0.0065446461214749
617,6.744,0.0126194202137157
618,6.752,0.00717114216045369
619,6.759,0.0118959664544188
620,6.767,0.0239522860616714
621,6.774,0.00670499927430876
622,6.782,0.0150657380802043
623,6.789,0.0188097977417204
624,6.797,0.0119220704560429
625,6.804,0.00869636168391992
626,6.812,0.0130743756705932
627,6.819,0.0198241246619718
628,6.827,0.010896556106524
629,6.834,0.0141259940217361
630,6.842,0.013864954005495
631,6.849,0.00773051362382761
632,6.857,0.0221734848081423
633,6.865,0.00714503815882957
634,6.872,0.0132011665356246
635,6.880,0.0136859551372153
636,6.887,0.00914758799770822
637,6.895,0.0125895870690024
638,6.902,0.020879472156204
639,6.910,0.0170160799158347
640,6.917,0.0204580789871289
641,6.925,0.021230011606585
642,6.932,0.0286174440662099
643,6.940,0.0234376643153674
644,6.947,0.0147748649192499
645,6.955,0.0187725063108289
646,6.962,0.0182877177092381
647,6.970,0.0140215780152397
648,6.978,0.0143124511761941
649,6.985,0.019406460635986
650,6.993,0.0186680903043324
651,7.000,0.00961746002694231
652,7.008,0.0240902643559703
653,7.015,0.0262718130631286
654,7.023,0.0444513856227811
655,7.030,0.0656590223708311
656,7.038,0.0382572789516872
657,7.045,0.0277149914386333
658,7.053,0.030280641883975
659,7.060,0.0221772139512315
660,7.068,0.0295161675506973
661,7.076,0.0154498398183877
662,7.083,0.00884179826439714
663,7.091,0.0124441504885252
664,7.098,0.0157257964069855
665,7.106,0.0199359989546466
666,7.113,0.0243513043722114
667,7.121,0.0147226569160017
668,7.128,0.0176090136670111
669,7.136,0.0237658289072134
670,7.143,0.0103595595016851
671,7.151,0.0282035091833132
672,7.158,0.0355499210689574
673,7.166,0.0400398093483054
674,7.173,0.0385444229695524
675,7.181,0.0332341232105893
676,7.189,0.0383654241012728
677,7.196,0.0267230393769169
678,7.204,0.0283936954808603
679,7.211,0.027893990306913
680,7.219,0.0339874101145996
681,7.226,0.0715920890256838
682,7.234,0.0613071123857819
683,7.241,0.0541881782285765
684,7.249,0.0493253756403125
685,7.256,0.0468492246291106
686,7.264,0.026935600532999
687,7.271,0.0403791613694189
688,7.279,0.0252015489965398
689,7.287,0.0267938930956109
690,7.294,0.0283526749068796
691,7.302,0.0268050805248784
692,7.309,0.0266372690858662
693,7.317,0.0237285374763218
