#"+EI TIC Scan ACE-PEEK.d "
#Point,X(Minutes),Y(Counts)
0,2.095,0.114279077775247
1,2.102,0.114529779287636
2,2.110,0.104606663611218
3,2.117,0.100834480389924
4,2.125,0.0800962180744013
5,2.132,0.0980825940213753
6,2.140,0.0702139142720931
7,2.148,0.0902933563341282
8,2.155,0.0832329021131281
9,2.163,0.0785861787323377
10,2.170,0.0698990798146744
11,2.178,0.0632642351379625
12,2.185,0.0629260796096239
13,2.193,0.0459075281058259
14,2.200,0.0647392928736463
15,2.208,0.0618183287409286
16,2.215,0.0533003075874346
17,2.223,0.054623778362139
18,2.230,0.0590781029078402
19,2.238,0.0460474545313453
20,2.245,0.0432664168241471
21,2.253,0.048484506442475
22,2.261,0.0461523993504849
23,2.268,0.0488110014353536
24,2.276,0.0481113693077566
25,2.283,0.0569034130445594
26,2.291,0.0565419364453009
27,2.298,0.0510673150468541
28,2.306,0.041389070615095
29,2.313,0.0468403709426219
30,2.321,0.048484506442475
31,2.328,0.046356458721034
32,2.336,0.052979642862286
33,2.343,0.0438844252035244
34,2.351,0.0551368419223769
35,2.359,0.0420537211363122
36,2.366,0.0441584477868333
37,2.374,0.0339846305980263
38,2.381,0.0444441309056021
39,2.389,0.192958540791264
40,2.396,0.294230291260936
41,2.404,0.0842415384304138
42,2.411,0.0452487078523387
43,2.419,0.0478781585985576
44,2.426,0.0292387926658264
45,2.434,0.0528630375076865
46,2.441,0.0479772731499671
47,2.449,0.0493124044601315
48,2.456,0.0444383006378721
49,2.464,0.047767383511688
50,2.472,0.0457909227512264
51,2.479,0.0426017663029299
52,2.487,0.0394592519964732
53,2.494,0.0502394170291976
54,2.502,0.0371446357076729
55,2.509,0.0387246382624963
56,2.517,0.0291921505239866
57,2.524,0.0468811828167318
58,2.532,0.0296935535487644
59,2.539,0.0341886899685754
60,2.547,0.0347483956706531
61,2.554,0.0468870130844617
62,2.562,0.0384622762146474
63,2.569,0.0216244630104786
64,2.577,0.0394825730673931
65,2.585,0.0276529598432731
66,2.592,0.0268367223610765
67,2.600,0.0298159891710939
68,2.607,0.0505367606834263
69,2.615,0.0237466804641896
70,2.622,0.0408060438420975
71,2.630,0.0408934978580471
72,2.637,0.0407010990229579
73,2.645,0.0429166007603485
74,2.652,0.0353722343177604
75,2.660,0.0378267770320801
76,2.667,0.0328185770520312
77,2.675,0.0117304986727104
78,2.683,0.0291455083821468
79,2.690,0.0274197491340741
80,2.698,0.0245337666077363
81,2.705,0.0329235218711708
82,2.713,0.0353139316404607
83,2.720,0.0460241334604254
84,2.728,0.0381649325604186
85,2.735,0.0386488447820066
86,2.743,0.0310869875362286
87,2.750,0.0364858154541857
88,2.758,0.0408934978580471
89,2.765,0.0585183972057626
90,2.773,0.0512014112046435
91,2.780,0.0310053637880089
92,2.788,0.0343169558586349
93,2.796,0.0398673707375714
94,2.803,0.0390744543262948
95,2.811,0.0421761567586417
96,2.818,0.0279386429620419
97,2.826,0.0260321454143399
98,2.833,0.0329701640130106
99,2.841,0.0327427835715416
100,2.848,0.0417272261434336
101,2.856,0.0422344594359414
102,2.863,0.0392027202163542
103,2.871,0.0438960857389844
104,2.878,0.0386138631756267
105,2.886,0.0479539520790472
106,2.894,0.0454236158842379
107,2.901,0.0489800791995229
108,2.909,0.0548103469294982
109,2.916,0.0408934978580471
110,2.924,0.0320723027825944
111,2.931,0.0356754082397192
112,2.939,0.0526065057275676
113,2.946,0.0523266528765287
114,2.954,1.26331407226652
115,2.961,17.5246129124922
116,2.969,63.4766959243105
117,2.976,100
118,2.984,10.9188612717528
119,2.991,0.161271035678848
120,2.999,0.100216472010546
121,3.007,0.0793091319308546
122,3.014,0.062197296143377
123,3.022,0.0636315420049509
124,3.029,0.0754728157645309
125,3.037,0.0774551067927225
126,3.044,0.0651357510792846
127,3.052,0.0537200868639928
128,3.059,0.0613344165193407
129,3.067,0.0520876118995998
130,3.074,0.0369289158016639
131,3.082,0.0403629434946193
132,3.089,0.0576671781171862
133,3.097,0.0398615404698415
134,3.105,0.0380366666703592
135,3.112,0.0423685555937309
136,3.120,0.0703888223039924
137,3.127,0.0890106974335336
138,3.135,0.050600893628456
139,3.142,0.0341537083621956
140,3.150,0.0423452345228109
141,3.157,0.0724818884190535
142,3.165,0.041383240347365
143,3.172,0.0425434636256301
144,3.180,0.0599992852091763
145,3.187,0.0461815506891347
146,3.195,0.035722050381559
147,3.202,0.034538506032374
148,3.210,0.0330342969580403
149,3.218,0.0350399090571518
150,3.225,0.0311277994103384
151,3.233,0.0382757076472882
152,3.240,0.0404853791169488
153,3.248,0.0508282740699251
154,3.255,0.0529563217913661
155,3.263,0.0506417055025659
156,3.270,0.0428408072798589
157,3.278,0.0224990031699749
158,3.285,0.0255015910509122
159,3.293,0.0407127595584179
160,3.300,0.0367889893761444
161,3.308,0.0377509835515904
162,3.316,0.0536967657930729
163,3.323,0.0329410126743607
164,3.331,0.0164938274081003
165,3.338,0.0204817305354034
166,3.346,0.0318624131443153
167,3.353,0.0222541319253159
168,3.361,0.0353430829791106
169,3.368,0.0248719221360748
170,3.376,0.0205108818740533
171,3.383,0.0227380441469039
172,3.391,0.0283176103644903
173,3.398,0.0182370774593629
174,3.406,0.0343169558586349
175,3.413,0.0263644706749485
176,3.421,0.0178872613955644
177,3.429,0.0145290271830986
178,3.436,0.0168961158814686
179,3.444,0.00953248773850969
180,3.451,0.0169544185587683
181,3.459,0.0297518562260642
182,3.466,0.0188667463742002
183,3.474,0.0170010607006081
184,3.481,0.0556440752148847
185,3.489,0.0866202876642437
186,3.496,0.0442459018027829
187,3.504,0.0210705875761309
188,3.511,0.0164355247308005
189,3.519,0.0202485198262044
190,3.526,0.0204467489290235
191,3.534,0.027443070204994
192,3.542,0.0180738299629236
193,3.549,0.0162372956279813
194,3.557,0.0191232781543191
195,3.564,0.0154735305553546
196,3.572,0.0161031994701919
197,3.579,0.0124126399971175
198,3.587,0.0384797670178373
199,3.594,0.0240323635829584
200,3.602,0.0179980364824339
201,3.609,0.013018987841035
202,3.617,0.0283001195613003
203,3.624,0.0244812941981665
204,3.632,0.0170826844488278
205,3.640,0.0235776027000203
206,3.647,0.00863462650809349
207,3.655,0.00784171009681684
208,3.662,0.0169660790942283
209,3.670,0.00471085632582008
210,3.677,0.0189891819965297
211,3.685,0.00696133966959056
212,3.692,0.0243763493790269
213,3.700,0.00770178367129743
214,3.707,0.0250293393647842
215,3.715,0.031920715821615
216,3.722,0.0235776027000203
217,3.730,0.0255657239959419
218,3.737,0.017729844166855
219,3.745,0.0154968516262745
220,3.753,0.00715373850467975
221,3.760,0.00695550940186059
222,3.768,0.0126691717772364
223,3.775,0.0159108006351027
224,3.783,0.0170127212360681
225,3.790,0.0209947940956412
226,3.798,0.015613456980874
227,3.805,0.0100572118342075
228,3.813,0.0143016467416295
229,3.820,0.0217294078296181
230,3.828,0.00515395667329821
231,3.835,0.0110017152064635
232,3.843,0.0109492427968937
233,3.851,0.0102146290629168
234,3.858,0.00982983139273844
235,3.866,0.0154268884135148
236,3.873,0.0161265205411118
237,3.881,0.0176365598831754
238,3.888,0.0121327871460787
239,3.896,0.01893087931923
240,3.903,0.0107918255681844
241,3.911,0.0157941952805032
242,3.918,0.0285333302704994
243,3.926,0.0197762681400764
244,3.933,0.0212105140016503
245,3.941,0.0142666651352497
246,3.948,0.0126924928481563
247,3.956,0.0240731754570682
248,3.964,0.0336464750696877
249,3.971,0.0677826926286934
250,3.979,0.0441934293932131
251,3.986,0.0127916073995659
252,3.994,0.0152927922557253
253,4.001,0.016797001330059
254,4.009,0.00580111639132547
255,4.016,0.0272390108344448
256,4.024,0.00133513131016435
257,4.031,0.0146864444118079
258,4.039,0.00966658389629913
259,4.046,0.00713041743375985
260,4.054,0.00613344165193407
261,4.062,0.0179455640728641
262,4.069,0.0259738427370402
263,4.077,0.0223124346026157
264,4.084,0.0226564203986842
265,4.092,0.0303407132667917
266,4.099,0.0108501282454841
267,4.107,0.0209598124892614
268,4.114,0.0340779148817059
269,4.122,0.0294953244459453
270,4.129,0.026970818518866
271,4.137,0.0190299938706395
272,4.144,0.019158259760699
273,4.152,0.011106660025603
274,4.159,0.0189716911933398
275,4.167,0.0130539694474148
276,4.175,0.0206274872286528
277,4.182,0.0129840062346551
278,4.190,0.0191116176188592
279,4.197,0.0138818674650713
280,4.205,0.0271690476216851
281,4.212,0.0150887328851762
282,4.220,0.00204642397322135
283,4.227,0.0309120795043293
284,4.235,0.0124009794616576
285,4.242,0.0172226108743472
286,4.250,0.00209306611506115
287,4.257,0.0320314909084846
288,4.265,0.0283934038449799
289,4.272,0.00859381463398366
290,4.280,0.0213854220335496
291,4.288,0.0140043030874008
292,4.295,0.0105527845912554
293,4.303,0.0099814183537178
294,4.310,0.00852385142122396
295,4.318,0.0180679996951936
296,4.325,0.0214728760494992
297,4.333,0.0252275684676033
298,4.340,0.0153977370748649
299,4.348,0.0092468046197409
300,4.355,0.0239682306379287
301,4.363,0.00332908287381592
302,4.370,0.0136894686299821
303,4.378,0.0188725766419302
304,4.386,0.0169019461491985
305,4.393,0.0232627682426016
306,4.401,0.00683307377953111
307,4.408,0.0274897123468338
308,4.416,0.0939839158072026
309,4.423,0.111352283374799
310,4.431,0.0374478096296317
311,4.438,0.0188784069096602
312,4.446,0.0235892632354803
313,4.453,0.0138410555909615
314,4.461,0.00968407469948905
315,4.468,0.0186335356650012
316,4.476,0.00617425352604389
317,4.483,0.0138993582682612
318,4.491,0.0199570064397056
319,4.499,0.0189775214610698
320,4.506,0.00778340741951709
321,4.514,0.0137594318427418
322,4.521,0.000711292663056992
323,4.529,0.0325970268782922
324,4.536,0.01891338851604
325,4.544,0.0140917571033504
326,4.551,0.00760266911988785
327,4.559,0.0128732311477856
328,4.566,0.00476915900311983
329,4.574,0.0140392846937806
330,4.581,0.0200794420620351
331,4.589,0.0113923431443718
332,4.597,0.0257231412246512
333,4.604,0.0181146418370334
334,4.612,0.0195255666276874
335,4.619,0.0335648513214681
336,4.627,0.0132288774793141
337,4.634,0.0105877661976352
338,4.642,0.0102146290629168
339,4.649,0.0289297884761377
340,4.657,0.0083489433893247
341,4.664,0.0200444604556552
342,4.672,0.017036042306988
343,4.679,0.0119928607205593
344,4.687,0.0166512446368096
345,4.694,0.0190591452092894
346,4.702,0.00961411148672935
347,4.710,0.0215544997977189
348,4.717,0.0178231284505346
349,4.725,0.0130714602506047
350,4.732,0
351,4.740,0.0106927110167748
352,4.747,0.0223649070121854
353,4.755,0.0160157454542423
354,4.762,0.0224290399572152
355,4.770,0.0230995207461623
356,4.777,0.033337470879999
357,4.785,0.0335998329278479
358,4.792,0.00616842325831392
359,4.800,0.0220267514838469
360,4.808,0.0252917014126331
361,4.815,0.0100747026373974
362,4.823,0.0258747281856306
363,4.830,0.0390044911135351
364,4.838,0.0245395968754662
365,4.845,0.0225631361150046
366,4.853,0.0170535331101779
367,4.860,0.00655322092849229
368,4.868,0.0195197363599575
369,4.875,0.0349407945057423
370,4.883,0.0189950122642597
371,4.890,0.0154502094844347
372,4.898,0.0282010050098908
373,4.905,0.025070151238894
374,4.913,0.00481580114495964
375,4.921,0.0367831591084145
376,4.928,0.024842770797425
377,4.936,0.0272331805667148
378,4.943,0.025303361948093
379,4.951,0.0309354005752492
380,4.958,0.0253325132867429
381,4.966,0.0331567325803698
382,4.973,0.0378092862288901
383,4.981,0.0465546878238531
384,4.988,0.0289706003502475
385,4.996,0.0288365041924581
386,5.003,0.0244055007176768
387,5.011,0.0226914020050641
388,5.019,0.0280086061748016
389,5.026,0.0454585974906178
390,5.034,0.0406019844715483
391,5.041,0.0586816447022019
392,5.049,0.105306295738815
393,5.056,0.184160666786731
394,5.064,0.191092855117672
395,5.071,0.110635160444012
396,5.079,0.0584892458671127
397,5.086,0.0446773416148011
398,5.094,0.0445257546538217
399,5.101,0.048490336710205
400,5.109,0.0400364485017407
401,5.116,0.052495730640698
402,5.124,0.0344685428196143
403,5.132,0.0339146673852666
404,5.139,0.0290638846339271
405,5.147,0.0419312855139827
406,5.154,0.0141442295129202
407,5.162,0.0332966590058892
408,5.169,0.0307896438819998
409,5.177,0.0347134140642732
410,5.184,0.0341420478267356
411,5.192,0.0357861833265887
412,5.199,0.0396574810992923
413,5.207,0.0307721530788099
414,5.214,0.023414355203581
415,5.222,0.0319790184989148
416,5.229,0.0325620452719123
417,5.237,0.0348475102220627
418,5.245,0.035710389846099
419,5.252,0.0232802590457916
420,5.260,0.0319731882311848
421,5.267,0.0269999698575158
422,5.275,0.0278861705524721
423,5.282,0.03548300940463
424,5.290,0.0185810632554314
425,5.297,0.020814055796012
426,5.305,0.0210064546311012
427,5.312,0.0271748778894151
428,5.320,0.0243938401822169
429,5.327,0.0294253612331856
430,5.335,0.0190533149415594
431,5.343,0.0335182091796283
432,5.350,0.0147738984277575
433,5.358,0.0320489817116745
434,5.365,0.0185460816490516
435,5.373,0.0311686112844482
436,5.380,0.0318390920733954
437,5.388,0.022458191295865
438,5.395,0.0419371157817127
439,5.403,0.0399373339503311
440,5.410,0.0318973947506951
441,5.418,0.0303407132667917
442,5.425,0.034538506032374
443,5.433,0.0384681064823773
444,5.440,0.0266851354000972
445,5.448,0.0356579174365292
446,5.456,0.0418321709625731
447,5.463,0.0436453842265955
448,5.471,0.0553992039702258
449,5.478,0.0448464193789704
450,5.486,0.0375410939133113
451,5.493,0.0276296387723532
452,5.501,0.0423568950582709
453,5.508,0.0384855972855673
454,5.516,0.0236067540386702
455,5.523,0.0322880226886035
456,5.531,0.0239040976928989
457,5.538,0.0311627810167182
458,5.546,0.0296352508714647
459,5.554,0.0508865767472248
460,5.561,0.0306089055823706
461,5.569,0.0407652319679876
462,5.576,0.0218168618455678
463,5.584,0.0318624131443153
464,5.591,0.0324687609882327
465,5.599,0.0233910341326611
466,5.606,0.0428757888862387
467,5.614,0.0386488447820066
468,5.621,0.0252508895385232
469,5.629,0.0181787747820631
470,5.636,0.0318740736797752
471,5.644,0.015129544759286
472,5.651,0.0227730257532837
473,5.659,0.0288948068697578
474,5.667,0.0227380441469039
475,5.674,0.0161964837538715
476,5.682,0.0271632173539551
477,5.689,0.028142702332591
478,5.697,0.024836940529695
479,5.704,0.0282301563485406
480,5.712,0.0289064674052178
481,5.719,0.0158874795641828
482,5.727,0.0470327697777111
483,5.734,0.0498487890912892
484,5.742,0.029332076949506
485,5.749,0.0446656810793411
486,5.757,0.0390394727199149
487,5.765,0.0453303316005583
488,5.772,0.0322763621531435
489,5.780,0.0400655998403906
490,5.787,0.020091102597495
491,5.795,0.0282767984903804
492,5.802,0.0483037681428458
493,5.810,0.0328885402647909
494,5.817,0.031687505112416
495,5.825,0.0482629562687359
496,5.832,0.0230761996752424
497,5.840,0.0227555349500938
498,5.847,0.0281660234035109
499,5.855,0.0376693598033707
500,5.862,0.0264286036199783
501,5.870,0.0448289285757804
502,5.878,0.0386371842465466
503,5.885,0.0365790997378653
504,5.893,0.0198287405496462
505,5.900,0.0311744415521782
506,5.908,0.0358328254684285
507,5.915,0.0257406320278412
508,5.923,0.0439135765421743
509,5.930,0.0403979251009992
510,5.938,0.0424618398774105
511,5.945,0.0310345151266588
512,5.953,0.027909491623392
513,5.960,0.0307021898660502
514,5.968,0.0296294206037347
515,5.975,0.0380541574735491
516,5.983,0.0394709125319331
517,5.991,0.0282010050098908
518,5.998,0.0268833645029163
519,6.006,0.0181846050497931
520,6.013,0.0351390236085614
521,6.021,0.0436920263684353
522,6.028,0.0342120110394953
523,6.036,0.0357920135943187
524,6.043,0.0442633926059728
525,6.051,0.0549094614809078
526,6.058,0.100064885049567
527,6.066,0.0791866963085252
528,6.073,0.0764464704754368
529,6.081,0.0615909482994596
530,6.089,0.0775483910764021
531,6.096,0.0625354516717156
532,6.104,0.0388762252234756
533,6.111,0.0525540333179978
534,6.119,0.0598651890513869
535,6.126,0.0611478479519814
536,6.134,0.0798979889715822
537,6.141,0.0514287916461125
538,6.149,0.0702897077525828
539,6.156,0.065042466795605
540,6.164,0.0666341298858883
541,6.171,0.120395028623991
542,6.179,0.169200199791615
543,6.186,0.103598027293932
544,6.194,0.0790234488120859
545,6.202,0.0474642095897293
546,6.209,0.0688671224264688
547,6.217,0.0517611169067211
548,6.224,0.0530204547363958
549,6.232,0.0485486393875047
550,6.239,0.0658120621359617
551,6.247,0.0606289541240136
552,6.254,0.0748548073851535
553,6.262,0.0555391303957452
554,6.269,0.0599060009254967
555,6.277,0.06859309984316
556,6.284,0.0634624642407817
557,6.292,0.0608155226913729
558,6.300,0.044216750464133
559,6.307,0.0501869446196278
560,6.315,0.0531428903587253
561,6.322,0.0422577805068613
562,6.330,0.0492366109796418
563,6.337,0.0535976512416634
564,6.345,0.045633505522517
565,6.352,0.0293845493590758
566,6.360,0.0557723411049442
567,6.367,0.0544022281884
568,6.375,0.0737762078551081
569,6.382,0.0729308190342616
570,6.390,0.0639113948559898
571,6.397,0.0601741932410756
572,6.405,0.0605123487694141
573,6.413,0.051323846826973
574,6.420,0.0481405206464064
575,6.428,0.0573756647306874
576,6.435,0.0355471423496597
577,6.443,0.043756159313465
578,6.450,0.0812331202817465
579,6.458,0.0914011072028235
580,6.465,0.0585766998830623
581,6.473,0.0569209038477493
582,6.480,0.0390453029876449
583,6.488,0.0521342540414396
584,6.495,0.034754225938383
585,6.503,0.0313668403872674
586,6.511,0.0502569078323875
587,6.518,0.0476507781570885
588,6.526,0.0441234661804534
589,6.533,0.0373020529363823
590,6.541,0.0397099535088621
591,6.548,0.0500528484618384
592,6.556,0.0542856228338005
593,6.563,0.0417738682852734
594,6.571,0.0333258103445391
595,6.578,0.0504434763997467
596,6.586,0.0301832960380824
597,6.593,0.0571133026828385
598,6.601,0.0480763877013767
599,6.608,0.0492482715151018
600,6.616,0.0468403709426219
601,6.624,0.058407622118893
602,6.631,0.0777407899114913
603,6.639,0.168932007476036
604,6.646,0.208950965174586
605,6.654,0.139973067661248
606,6.661,0.109614863591267
607,6.669,0.0833378469322676
608,6.676,0.0706162027454614
609,6.684,0.0724993792222434
610,6.691,0.062902758538704
611,6.699,0.0853551195668391
612,6.706,0.0604715368953043
613,6.714,0.0455285607033775
614,6.722,0.0570433394700788
615,6.729,0.0718638800396761
616,6.737,0.10641404660751
617,6.744,0.0710359820220196
618,6.752,0.0529913033977459
619,6.759,0.048239635197816
620,6.767,0.0632992167443423
621,6.774,0.064097963423349
622,6.782,0.0503501921160671
623,6.789,0.0829413887266293
624,6.797,0.0610720544714918
625,6.804,0.0508166135344651
626,6.812,0.0603432710052448
627,6.819,0.0491724780346121
628,6.827,0.0483037681428458
629,6.835,0.0496563902562
630,6.842,0.0468695222812718
631,6.850,0.0519593460095403
632,6.857,0.0537200868639928
633,6.865,0.0611595084874414
634,6.872,0.0559530794045734
635,6.880,0.0430273758472181
636,6.887,0.041633941859754
637,6.895,0.0543730768497501
638,6.902,0.0943862042805709
639,6.910,0.109883055906845
640,6.917,0.0723186409226142
641,6.925,0.0654330947335133
642,6.932,0.0780964362430198
643,6.940,0.0575564030303166
644,6.948,0.085623311882418
645,6.955,0.0580053336455247
646,6.963,0.0713974586212781
647,6.970,0.0760616728052584
648,6.978,0.101073521366853
649,6.985,0.265924341431906
650,6.993,0.664860410855469
651,7.000,0.520030730175151
652,7.008,0.20337722922473
653,7.015,0.163369932061639
654,7.023,0.162367126012083
655,7.030,0.188043625094895
656,7.038,0.119118199991126
657,7.046,0.102892564898605
658,7.053,0.081367216439536
659,7.061,0.0822359263313023
660,7.068,0.0835710576414666
661,7.076,0.0898444257189201
662,7.083,0.0745632939986547
663,7.091,0.0735196760749891
664,7.098,0.0709835096124499
665,7.106,0.0688846132296587
666,7.113,0.0543672465820201
667,7.121,0.0596786204840277
668,7.128,0.0540057699827616
669,7.136,0.0581394298033142
670,7.143,0.0684764944885605
671,7.151,0.0693102227739469
672,7.159,0.0888299591339044
673,7.166,0.0887308445824948
674,7.174,0.0734147312558496
675,7.181,0.0609612793846222
676,7.189,0.0499595641781587
677,7.196,0.0784812339131982
678,7.204,0.0744525189117852
679,7.211,0.0770120064452444
680,7.219,0.0699515522242442
681,7.226,0.112366749959815
682,7.234,0.135326344280458
683,7.241,0.114331550184817
684,7.249,0.0861422057103858
685,7.257,0.0731931810821105
686,7.264,0.0750763575588926
687,7.272,0.0618649708827684
688,7.279,0.0560638544914429
689,7.287,0.0559764004754933
690,7.294,0.0609904307232721
691,7.302,0.0601975143119955
692,7.309,0.0717939168269164
693,7.317,0.0604423855566544
694,7.324,0.0731173876016208
