#"+EI TIC Scan ACE-End-Blank.d "
#Point,X(Minutes),Y(Counts)
0,2.095,0.0862835129890225
1,2.102,0.0867120052701255
2,2.110,0.0714593281100948
3,2.117,0.0649948628307626
4,2.125,0.0680643508059713
5,2.132,0.0676070176982557
6,2.140,0.0598859164022272
7,2.148,0.0411022980411846
8,2.155,0.0563755757916529
9,2.163,0.0534338114771575
10,2.170,0.051122425230054
11,2.178,0.0437350534991153
12,2.185,0.0441388250716932
13,2.193,0.0582873105842661
14,2.200,0.0491118076033401
15,2.208,0.0473071958810026
16,2.215,0.0416008323297756
17,2.223,0.0529023162438663
18,2.230,0.0561901704777141
19,2.238,0.0274523468172026
20,2.246,0.0472907154086525
21,2.253,0.02960716857698
22,2.261,0.0357173037007848
23,2.268,0.0341763795360492
24,2.276,0.0477562887525432
25,2.283,0.0340527759934233
26,2.291,0.0456138273470284
27,2.298,0.0242798558898056
28,2.306,0.0229861388103217
29,2.313,0.0300768620389583
30,2.321,0.0350580848067803
31,2.328,0.0401752714714907
32,2.336,0.0297596129462186
33,2.343,0.0420210843747035
34,2.351,0.0293517212555533
35,2.359,0.0356884628741721
36,2.366,0.0509493802703778
37,2.374,0.0335707221771825
38,2.381,0.0282722503166208
39,2.389,0.153841089270228
40,2.396,0.318501608638306
41,2.404,0.125721283322846
42,2.411,0.0276748331939291
43,2.419,0.0275182687066031
44,2.426,0.028733703542424
45,2.434,0.029318760310853
46,2.441,0.0293476011374657
47,2.449,0.0327837796224645
48,2.457,0.0284782562209972
49,2.464,0.0445096356995707
50,2.472,0.0448310049103979
51,2.479,0.0352105291760188
52,2.487,0.0343659049680755
53,2.494,0.0364218438937522
54,2.502,0.0399692655671143
55,2.509,0.03645892495654
56,2.517,0.033653124538933
57,2.524,0.0239914476236786
58,2.532,0.0422724115780427
59,2.539,0.0426514624420953
60,2.547,0.0386590680152802
61,2.554,0.0268096083955481
62,2.562,0.0280209231132815
63,2.570,0.0374147923528466
64,2.577,0.0253181256478628
65,2.585,0.0380039692393632
66,2.592,0.0257548581651408
67,2.600,0.0204028247694413
68,2.607,0.0170078474653178
69,2.615,0.0368874172376429
70,2.622,0.0225411660568686
71,2.630,0.0218613465724264
72,2.637,0.0198054076467496
73,2.645,0.0222197968460414
74,2.652,0.0302952282975973
75,2.660,0.0293970425545161
76,2.667,0.016323907862788
77,2.675,0.0265294403655962
78,2.683,0.0149931097205163
79,2.690,0.0204975874854544
80,2.698,0.0377032006189736
81,2.705,0.0251203599796615
82,2.713,0.0462277249420701
83,2.720,0.0423630541759683
84,2.728,0.0343205836691127
85,2.735,0.0570883562207953
86,2.743,0.0308102430585384
87,2.750,0.0485143904806484
88,2.758,0.0424124955930187
89,2.765,0.0426102612612201
90,2.773,0.0530547606131049
91,2.781,0.0155658061346828
92,2.788,0.0251079996253989
93,2.796,0.0293146401927655
94,2.803,0.0502365998412354
95,2.811,0.034370025086163
96,2.818,0.0329032630470028
97,2.826,0.0343494244957254
98,2.833,0.0310080087267397
99,2.841,0.041370105716874
100,2.848,0.0362323184617259
101,2.856,0.029380562082166
102,2.863,0.0313252578194794
103,2.871,0.0560583266989132
104,2.878,0.0364877657831527
105,2.886,0.04766152603653
106,2.894,0.0537757812784224
107,2.901,0.0408962921368082
108,2.909,0.0574674070848479
109,2.916,0.0472495142277772
110,2.924,0.0445755575889712
111,2.931,0.0395325330498362
112,2.939,0.0333605961547185
113,2.946,0.0522636979402994
114,2.954,0.546356499232896
115,2.961,10.9712028878402
116,2.969,50.2121387001497
117,2.976,100
118,2.984,38.8959583248407
119,2.992,0.338727268329983
120,2.999,0.116516939515307
121,3.007,0.0866213626721998
122,3.014,0.0676811798238312
123,3.022,0.0556833959529481
124,3.029,0.0582749502300035
125,3.037,0.074298089472402
126,3.044,0.07076714827139
127,3.052,0.0561613296511014
128,3.059,0.0647558959816859
129,3.067,0.059721111678726
130,3.074,0.0328950228108278
131,3.082,0.0422765316961302
132,3.089,0.0506609720042508
133,3.097,0.0366525705066538
134,3.105,0.0217789442106758
135,3.112,0.0351363670504433
136,3.120,0.0514355542047062
137,3.127,0.0775777034700747
138,3.135,0.0493013330353664
139,3.142,0.0294547242077415
140,3.150,0.0323470471051865
141,3.157,0.0543443575745013
142,3.165,0.0496433028366313
143,3.172,0.0576363319264366
144,3.180,0.055885281739237
145,3.187,0.0445055155814832
146,3.195,0.0299614987325075
147,3.203,0.0231097423529475
148,3.210,0.0338920913880097
149,3.218,0.023900805025753
150,3.225,0.0361746368085005
151,3.233,0.0316136660856064
152,3.240,0.0427297446857584
153,3.248,0.0353959344899576
154,3.255,0.0388073922664312
155,3.263,0.0373735911719713
156,3.270,0.032709617496889
157,3.278,0.0275059083523405
158,3.285,0.0403730371396921
159,3.293,0.0287378236605115
160,3.300,0.0242880961259807
161,3.308,0.0343576647319004
162,3.316,0.0323841281679743
163,3.323,0.0306454383350372
164,3.331,0.0292940396023279
165,3.338,0.0290344721628136
166,3.346,0.0153639203483939
167,3.353,0.0170655291185432
168,3.361,0.0178153906104734
169,3.368,0.0192368313506707
170,3.376,0.0191091076899573
171,3.383,0.0173044959676198
172,3.391,0.0306577986892998
173,3.398,0.0224999648759933
174,3.406,0.0315930654951688
175,3.413,0.0327508186777643
176,3.421,0.0127970867798636
177,3.429,0.00348149978396161
178,3.436,0.0210290827187456
179,3.444,0.01588717534551
180,3.451,0.0277778361461174
181,3.459,0.0252068824594995
182,3.466,0.00632026114626877
183,3.474,0.011404486866279
184,3.481,0.0427009038591457
185,3.489,0.069386908712068
186,3.496,0.0620613387524423
187,3.504,0.0204563863045792
188,3.511,0.0379916088851006
189,3.519,0.0168636433322543
190,3.527,0.0164227906968887
191,3.534,0.00817843440374413
192,3.542,0.0114786489918545
193,3.549,0.0259938250142175
194,3.557,0.0211320856709338
195,3.564,0.0198054076467496
196,3.572,0.0135881494526691
197,3.579,0.0174857811634711
198,3.587,0.0122120300114346
199,3.594,0.0127270447723756
200,3.602,0.0100942893144449
201,3.609,0.0161797037297245
202,3.617,0.0236700784128514
203,3.624,0.00273163829203142
204,3.632,0.00187465372982548
205,3.640,0.0156440883783458
206,3.647,0.0162044244382497
207,3.655,0.0156729292049585
208,3.662,0.0193686751294716
209,3.670,0.00162332652648624
210,3.677,0.0187465372982548
211,3.685,0.00355154179144959
212,3.692,0.00660866941239576
213,3.700,0.0113797661577538
214,3.707,0.0208189566962817
215,3.715,0.0189855041473315
216,3.722,0.0183180450171518
217,3.730,0.0110748774192767
218,3.738,0.0158047729837594
219,3.745,0.0174981415177337
220,3.753,0.0252316031680247
221,3.760,0.0141649659849231
222,3.768,0.0239667269151535
223,3.775,0.0169748865206175
224,3.783,0.0100860490782698
225,3.790,0.0112314419066028
226,3.798,0.0140372423242097
227,3.805,0.0176135048241845
228,3.813,0.0142473683466737
229,3.820,0.00882941306157364
230,3.828,0.00926202546076414
231,3.835,0.0156234877879082
232,3.843,0.0149024671225907
233,3.851,0.0119524625719203
234,3.858,0.0232498263679235
235,3.866,0.0189813840292439
236,3.873,0.0209219596484699
237,3.881,0.00291292348788267
238,3.888,0.0150095901928664
239,3.896,0.0112850034417406
240,3.903,0.0275306290608656
241,3.911,0.0177206278944602
242,3.918,0.0134151044929929
243,3.926,0.0229696583379716
244,3.933,0.0202998218172531
245,3.941,0.0259237830067295
246,3.949,0.0235217541617004
247,3.956,0.0193109934762462
248,3.964,0.0299944596772077
249,3.971,0.0737624741210233
250,3.979,0.0527704724650654
251,3.986,0.026286353398432
252,3.994,0.0239996878598537
253,4.001,0.0169954871110552
254,4.009,0.0106299046658236
255,4.016,0.0158995356997726
256,4.024,0.0185364112757909
257,4.031,0.00812075275051873
258,4.039,0.0230108595188468
259,4.046,0.0208972389399447
260,4.054,0.018482849740653
261,4.062,0.0231303429433852
262,4.069,0.0133656630759426
263,4.077,0.0133574228397675
264,4.084,0.0209095992942073
265,4.092,0.0144492541329626
266,4.099,0.0326024944266133
267,4.107,0.0227760127878577
268,4.114,0.0104650999423225
269,4.122,0.0127723660713384
270,4.129,0.0362158379893758
271,4.137,0.0263852362325327
272,4.144,0.0251986422233245
273,4.152,0.0345842712267145
274,4.159,0.0418933607139901
275,4.167,0.0160313794785735
276,4.175,0.0139095186634963
277,4.182,0.00810427227816862
278,4.190,0.0355895800400714
279,4.197,0.023752480774602
280,4.205,0.0140578429146473
281,4.212,0.0179884355701496
282,4.220,0.0258825818258542
283,4.227,0.0240779701035167
284,4.235,0.00961223549820406
285,4.242,0.0103620969901343
286,4.250,0.0122326306018722
287,4.257,0.00656746823152048
288,4.265,0.0181779610021759
289,4.273,0.007148404881862
290,4.280,0.0197106449307365
291,4.288,0.0295824478684549
292,4.295,0.0322110832082981
293,4.303,0.00256683356853027
294,4.310,0.00025132720333924
295,4.318,0.021515256653074
296,4.325,0.0214781755902862
297,4.333,0.0255941735597272
298,4.340,0.0152609173962057
299,4.348,0.009892403528156
300,4.355,0.0150961126727045
301,4.363,0.0142844494094614
302,4.370,0.0195128792625351
303,4.378,0.0118164986750318
304,4.386,0.0142556085828487
305,4.393,0.0233899103828995
306,4.401,0.0185858526928412
307,4.408,0.0298214147175315
308,4.416,0.0672856484874284
309,4.423,0.0988869542187723
310,4.431,0.0491818496108281
311,4.438,0.0226318086547942
312,4.446,0.0258455007630665
313,4.453,0.028383493504984
314,4.461,0.0165175534129019
315,4.468,0.0255735729692896
316,4.476,0.0172262137239568
317,4.484,0.00778290306734139
318,4.491,0.0248237114773594
319,4.499,0.0148653860598029
320,4.506,0.0170984900632434
321,4.514,0.0280209231132815
322,4.521,0.0213834128742731
323,4.529,0.0181120391127754
324,4.536,0.0364094835394896
325,4.544,0.0279550012238811
326,4.551,0.0254582096628388
327,4.559,0.0280456438218067
328,4.566,0.019636482805161
329,4.574,0.0262204315090316
330,4.581,0.0193686751294716
331,4.589,0.0240202884502913
332,4.597,0.0123315134359729
333,4.604,0.0273246231564892
334,4.612,0.0168018415609413
335,4.619,0.0123603542625856
336,4.627,0.0239543665608909
337,4.634,0.0265871220188216
338,4.642,0.0117917779665067
339,4.649,0.00878409176261083
340,4.657,0.0287501840147741
341,4.664,0.0252151226956746
342,4.672,0.0120266246974958
343,4.679,0.014445134014875
344,4.687,0.0155040043633699
345,4.695,0.0193027532400712
346,4.702,0.0216100193690871
347,4.710,0.0148653860598029
348,4.717,0.019924891071288
349,4.725,0.026784887687023
350,4.732,0.0163074273904379
351,4.740,0.00648918598785744
352,4.747,0.0172344539601318
353,4.755,0
354,4.762,0.0165958356565649
355,4.770,0.0188000988333927
356,4.777,0.00749037468312687
357,4.785,0.0198466088276249
358,4.792,0.00954631360880361
359,4.800,0.0164845924682017
360,4.808,0.0133285820131548
361,4.815,0.0202998218172531
362,4.823,0.011412727102454
363,4.830,0.011841219383557
364,4.838,0.0128588885511765
365,4.845,0.0185116905672657
366,4.853,0.0118329791473819
367,4.860,0.0246218256910705
368,4.868,0.0173003758495323
369,4.875,0.0175105018719963
370,4.883,0.0327137376149765
371,4.890,0.0205758697291175
372,4.898,0.0209137194122948
373,4.906,0.0218654666905139
374,4.913,0.0189072219036684
375,4.921,0.0159201362902102
376,4.928,0.0183757266703772
377,4.936,0.0195994017423732
378,4.943,0.00958339467159136
379,4.951,0.0195952816242857
380,4.958,0.0286513011806734
381,4.966,0.0238802044353154
382,4.973,0.0203080620534281
383,4.981,0.0188742609589682
384,4.988,0.0276171515407037
385,4.996,0.0217583436202382
386,5.003,0.0153309594036937
387,5.011,0.0287501840147741
388,5.019,0.0227306914888949
389,5.026,0.00731732972345067
390,5.034,0.0232209855413108
391,5.041,0.011631093361093
392,5.049,0.0237277600660768
393,5.056,0.0177741894295981
394,5.064,0.0170490486461931
395,5.071,0.0235711955787507
396,5.079,0.0115981324163928
397,5.086,0.0181079189946879
398,5.094,0.0309585673096894
399,5.101,0.0232292257774859
400,5.109,0.0167070788449282
401,5.116,0.0145604973213258
402,5.124,0.0352517303568941
403,5.132,0.0293063999565904
404,5.139,0.0161179019584116
405,5.147,0.00888297459671151
406,5.154,0.0173086160857074
407,5.162,0.0149148274768533
408,5.169,0.0269249717019989
409,5.177,0.0131184559906908
410,5.184,0.00952983313645349
411,5.192,0.0142844494094614
412,5.199,0.008231995938882
413,5.207,0.0212680495678223
414,5.214,0.0187300568259047
415,5.222,0.0115569312355175
416,5.230,0.0176464657688847
417,5.237,0.0168883640407794
418,5.245,0.0328455813937774
419,5.252,0.0253593268287381
420,5.260,0.00953395325454102
421,5.267,0.0236165168777135
422,5.275,0.00781586401204162
423,5.282,0.0187218165897296
424,5.290,0.0185405313938784
425,5.297,0.0190637863909945
426,5.305,0.0238719641991403
427,5.312,0.0207159537440935
428,5.320,0.0196241224508984
429,5.327,0.0258578611173291
430,5.335,0.0193315940666839
431,5.343,0.0109141928138631
432,5.350,0.010539262067898
433,5.358,0.022895496212396
434,5.365,0.0120637057602835
435,5.373,0.0268384492221608
436,5.380,0.0342958629605875
437,5.388,0.00508422572001021
438,5.395,0.013143176699216
439,5.403,0.0110213158841388
440,5.410,0.0177041474221101
441,5.418,0.023175664242348
442,5.425,0.0206005904376427
443,5.433,0.0125416394584368
444,5.441,0.0303117087699474
445,5.448,0.0138765577187961
446,5.456,0.03249125123825
447,5.463,0.0324624104116373
448,5.471,0.0275182687066031
449,5.478,0.0444972753453081
450,5.486,0.0265500409560338
451,5.493,0.0220797128310654
452,5.501,0.018334525489502
453,5.508,0.0241933334099675
454,5.516,0.0203080620534281
455,5.523,0.0235670754606632
456,5.531,0.0260267859589177
457,5.538,0.0267313261518851
458,5.546,0.0241521322290922
459,5.554,0.0196282425689859
460,5.561,0.0135387080356188
461,5.569,0.0316878282111819
462,5.576,0.0259732244237799
463,5.584,0.0265088397751586
464,5.591,0.0105269017136354
465,5.599,0.0163486285713132
466,5.606,0.0310945312065778
467,5.614,0.0289355893287129
468,5.621,0.0411393791039724
469,5.629,0.0569441520877318
470,5.636,0.0490417655958521
471,5.644,0.0386796686057178
472,5.652,0.0360839942105749
473,5.659,0.0304353123125733
474,5.667,0.0369863000717436
475,5.674,0.0280003225228439
476,5.682,0.0248855132486723
477,5.689,0.0320091974220092
478,5.697,0.0251492008062742
479,5.704,0.030830843648976
480,5.712,0.0250503179721735
481,5.719,0.0344318268574759
482,5.727,0.0571913591729835
483,5.734,0.057108956811233
484,5.742,0.0468951840722497
485,5.749,0.0445549569985335
486,5.757,0.0455808664023281
487,5.765,0.0200402543777388
488,5.772,0.0371593450314198
489,5.780,0.041666754219176
490,5.787,0.0221868359013411
491,5.795,0.0272175000862135
492,5.802,0.0312181347492037
493,5.810,0.0198878100085002
494,5.817,0.0303034685337723
495,5.825,0.0213998933466232
496,5.832,0.032919743519353
497,5.840,0.0254952907256265
498,5.847,0.0318114317538078
499,5.855,0.0110954780097143
500,5.862,0.0258908220620293
501,5.870,0.0209549205931701
502,5.878,0.0198919301265877
503,5.885,0.0271144971340253
504,5.893,0.0182232823011387
505,5.900,0.0299738590867701
506,5.908,0.0154051215292692
507,5.915,0.0237277600660768
508,5.923,0.00797654861745523
509,5.930,0.0297019312929932
510,5.938,0.023979087269416
511,5.945,0.0150178304290415
512,5.953,0.0219684696427021
513,5.960,0.0213463318114853
514,5.968,0.0323470471051865
515,5.976,0.0221126737757656
516,5.983,0.032272884979611
517,5.991,0.0301922253454091
518,5.998,0.0241274115205671
519,6.006,0.0212639294497347
520,6.013,0.0118370992654695
521,6.021,0.0342505416616247
522,6.028,0.0352187694121939
523,6.036,0.0526633493947897
524,6.043,0.0434507653510759
525,6.051,0.0448804463274483
526,6.058,0.02852357751996
527,6.066,0.0328249808033398
528,6.073,0.0343988659127757
529,6.081,0.0350539646886927
530,6.089,0.027720154492892
531,6.096,0.0347161150055154
532,6.104,0.0248896333667599
533,6.111,0.0279138000430058
534,6.119,0.0377773627445491
535,6.126,0.0362900001149513
536,6.134,0.0750809119090324
537,6.141,0.0930940681877071
538,6.149,0.0745576569119163
539,6.156,0.0585509981418679
540,6.164,0.0491159277214276
541,6.171,0.0519794097922599
542,6.179,0.0525768269149516
543,6.187,0.0358244267710606
544,6.194,0.0399198241500639
545,6.202,0.0426597026782704
546,6.209,0.0452224161287132
547,6.217,0.0310533300257025
548,6.224,0.0301716247549714
549,6.232,0.0464790521454094
550,6.239,0.0484443484731605
551,6.247,0.0530300399045797
552,6.254,0.0255447321426769
553,6.262,0.0282846106708834
554,6.269,0.0257177771023531
555,6.277,0.0443201102675444
556,6.284,0.0248319517135345
557,6.292,0.0305506756190241
558,6.300,0.0270362148903622
559,6.307,0.0416379133925633
560,6.315,0.0348603191385789
561,6.322,0.0219849501150522
562,6.330,0.0383871402215033
563,6.337,0.0343041031967625
564,6.345,0.0184622491502153
565,6.352,0.0137941553570455
566,6.360,0.0309256063649892
567,6.367,0.0254252487181386
568,6.375,0.0393842087986852
569,6.382,0.0187506574163423
570,6.390,0.0280703645303319
571,6.398,0.022747171961245
572,6.405,0.0245435434474075
573,6.413,0.0286059798817106
574,6.420,0.0248484321858846
575,6.428,0.0178565917913487
576,6.435,0.0407191270590445
577,6.443,0.0275223888246906
578,6.450,0.0278931994525682
579,6.458,0.0193027532400712
580,6.465,0.0296318892855052
581,6.473,0.0338426499709594
582,6.480,0.0144080529520873
583,6.488,0.0346048718171521
584,6.495,0.0242098138823176
585,6.503,0.0103167756911714
586,6.511,0.0143174103541616
587,6.518,0.0254994108437141
588,6.526,0.0221209140119407
589,6.533,0.016323907862788
590,6.541,0.0295165259790544
591,6.548,0.0345389499277517
592,6.556,0.0116475738334432
593,6.563,0.0201185366214018
594,6.571,0.0316342666760441
595,6.578,0.0446332392421966
596,6.586,0.0314323808897552
597,6.593,0.0264717587123708
598,6.601,0.0296154088131551
599,6.609,0.0300521413304331
600,6.616,0.037254107747433
601,6.624,0.0354865770878832
602,6.631,0.0256930563938279
603,6.639,0.0262739930441694
604,6.646,0.0261256687930184
605,6.654,0.0302622673528971
606,6.661,0.0275223888246906
607,6.669,0.026286353398432
608,6.676,0.0271103770159377
609,6.684,0.0193068733581587
610,6.691,0.0299161774335447
611,6.699,0.0229160968028337
612,6.706,0.0332987943834056
613,6.714,0.027728394729067
614,6.722,0.0277325148471545
615,6.729,0.0197600863477868
616,6.737,0.032054518720972
617,6.744,0.0206088306738177
618,6.752,0.0223145595620545
619,6.759,0.0280827248845945
620,6.767,0.0314529814801928
621,6.774,0.0256889362757404
622,6.782,0.0168348025056416
623,6.789,0.0304929939657987
624,6.797,0.0254334889543136
625,6.804,0.0300809821570458
626,6.812,0.0300562614485206
627,6.819,0.0297431324738685
628,6.827,0.0315436240781184
629,6.835,0.0340980972923861
630,6.842,0.0376826000285359
631,6.850,0.0281445266559074
632,6.857,0.0339085718603598
633,6.865,0.0278025568546425
634,6.872,0.0413206642998236
635,6.880,0.0209755211836077
636,6.887,0.0285112171656974
637,6.895,0.0356802226379971
638,6.902,0.0373735911719713
639,6.910,0.0448474853827481
640,6.917,0.0430840748412858
641,6.925,0.0315601045504685
642,6.933,0.0334471186345566
643,6.940,0.0279138000430058
644,6.948,0.0418645198873774
645,6.955,0.0325324524191253
646,6.963,0.0356472616932969
647,6.970,0.0330392269438913
648,6.978,0.0562025308319767
649,6.985,0.0251533209243617
650,6.993,0.0344153463851258
651,7.000,0.0414978293775874
652,7.008,0.0381234526639015
653,7.015,0.0416502737468259
654,7.023,0.0804865068398698
655,7.030,0.205161280168483
656,7.038,0.219944263866536
657,7.046,0.13758310329684
658,7.053,0.0934731190517598
659,7.061,0.0702109323295737
660,7.068,0.0713192440951189
661,7.076,0.0678501046654198
662,7.083,0.0550859788302565
663,7.091,0.0534132108867199
664,7.098,0.0634333380755893
665,7.106,0.0470641089138384
666,7.113,0.0516621606995202
667,7.121,0.038127572781989
668,7.128,0.0583738330641042
669,7.136,0.0464378509645341
670,7.144,0.0603803305727306
671,7.151,0.0559594438648125
672,7.159,0.088516616992463
673,7.166,0.143116421888391
674,7.174,0.141505455716167
675,7.181,0.096748612931345
676,7.189,0.10180811794283
677,7.196,0.0647764965721236
678,7.204,0.0715705712984581
679,7.211,0.0615545642276762
680,7.219,0.0857314171652937
681,7.226,0.14838605292234
682,7.234,0.300846902633246
683,7.241,0.337454151840937
684,7.249,0.21088412419206
685,7.257,0.153647443720114
686,7.264,0.121510522637391
687,7.272,0.113307367525122
688,7.279,0.102636261678423
689,7.287,0.0769267248122452
690,7.294,0.0621890624131556
691,7.302,0.0523873014829253
692,7.309,0.0756494882051113
693,7.317,0.0649289409413621
