#"+EI TIC Scan ACE-PET.d "
#Point,X(Minutes),Y(Counts)
0,2.095,0.0885185193333551
1,2.102,0.0827306723565828
2,2.110,0.0781867047739414
3,2.117,0.0593719712171385
4,2.125,0.060890857960312
5,2.132,0.0579080859437736
6,2.140,0.0637551652726474
7,2.147,0.0545656889323335
8,2.155,0.0599177550329307
9,2.162,0.0583227124084839
10,2.170,0.042757296452676
11,2.177,0.0510582875114678
12,2.185,0.0488286125430767
13,2.193,0.047115105214427
14,2.200,0.0526490992536216
15,2.208,0.0593423550410878
16,2.215,0.0588811888711549
17,2.223,0.0450842817138052
18,2.230,0.043430006737257
19,2.238,0.0415980347044043
20,2.245,0.0375110024094028
21,2.253,0.0378579347574257
22,2.260,0.0383741023971671
23,2.268,0.0326962583600119
24,2.275,0.036931371535267
25,2.283,0.0387971906264634
26,2.291,0.0318712363128842
27,2.298,0.0262483937455375
28,2.306,0.0426684479245238
29,2.313,0.0334789715842099
30,2.321,0.0373459979999773
31,2.328,0.0349936274450903
32,2.336,0.0258083819870694
33,2.343,0.0399141435518054
34,2.351,0.0316258451398924
35,2.358,0.0297811804601609
36,2.366,0.0355140259671247
37,2.373,0.0331405010007729
38,2.381,0.0309362113261396
39,2.388,0.151038266976458
40,2.396,0.344605362761771
41,2.404,0.140596449477427
42,2.411,0.0376125435844339
43,2.419,0.0235744761363854
44,2.426,0.0251356717024884
45,2.434,0.0298234892830905
46,2.441,0.0245475790637667
47,2.449,0.0211840276408617
48,2.456,0.0144992336179815
49,2.464,0.0355521039077614
50,2.471,0.0457062214108706
51,2.479,0.0298150275185046
52,2.486,0.0304792760384997
53,2.494,0.0335508965831902
54,2.502,0.0412468714740885
55,2.509,0.0265022466831152
56,2.517,0.0354717171441951
57,2.524,0.0300646495737894
58,2.532,0.030669665741683
59,2.539,0.0407264729520541
60,2.547,0.024733737884657
61,2.554,0.0298657981060202
62,2.562,0.0320489333691887
63,2.569,0.0378494729928398
64,2.577,0.0350867068555355
65,2.584,0.0401722273716761
66,2.592,0.0281734451888353
67,2.599,0.0218694305723216
68,2.607,0.0341897598094275
69,2.615,0.0299292613404146
70,2.622,0.0294173245829662
71,2.630,0.0401172259018676
72,2.637,0.0170504556406377
73,2.645,0.0320870113098253
74,2.652,0.0308685172094522
75,2.660,0.0355817200838121
76,2.667,0.0382979465158938
77,2.675,0.0333181980570773
78,2.682,0.0289053878255177
79,2.690,0.0381160185772964
80,2.697,0.0452492861232307
81,2.705,0.0281692143065423
82,2.713,0.0250933628795588
83,2.720,0.0390383509171622
84,2.728,0.0385221832774208
85,2.735,0.0459854596422061
86,2.743,0.0353067127347695
87,2.750,0.0377267774063439
88,2.758,0.0231810040831399
89,2.765,0.0530425713068671
90,2.773,0.0562876580255691
91,2.780,0.0421438185201965
92,2.788,0.0356790303765502
93,2.795,0.0352686347941329
94,2.803,0.0537068198268621
95,2.810,0.0396814450256925
96,2.818,0.0387041112160182
97,2.826,0.0132468924592646
98,2.833,0.0493490110651111
99,2.841,0.0234263952561317
100,2.848,0.0343970730417827
101,2.856,0.0310250598542918
102,2.863,0.0523571683754072
103,2.871,0.0342913009844586
104,2.878,0.0588854197534479
105,2.886,0.052039852203435
106,2.893,0.0947590707154743
107,2.901,0.0919878428135841
108,2.908,0.0729827195535979
109,2.916,0.0589573447524282
110,2.923,0.0541976021728458
111,2.931,0.0395206714985599
112,2.939,0.048350522843972
113,2.946,0.043540009676874
114,2.954,0.495944022381029
115,2.961,10.5246243272686
116,2.969,49.334769915313
117,2.976,100
118,2.984,56.6313495177556
119,2.991,0.458551484675829
120,2.999,0.105708594089661
121,3.006,0.0774928400778956
122,3.014,0.0802894532735436
123,3.021,0.100563841221418
124,3.029,0.0825106664773488
125,3.037,0.0912982089998313
126,3.044,0.0726442489701609
127,3.052,0.0519086948523532
128,3.059,0.0547476168709308
129,3.067,0.0505590434008983
130,3.074,0.0422876685181572
131,3.082,0.0427276802766252
132,3.089,0.0369525259467318
133,3.097,0.0479824360844843
134,3.104,0.0241414143636423
135,3.112,0.0442465670197987
136,3.119,0.0461039243464091
137,3.127,0.0745777621780447
138,3.134,0.0535841242403662
139,3.142,0.031896621606642
140,3.150,0.0452831331815744
141,3.157,0.0515533007397444
142,3.165,0.0514221433886626
143,3.172,0.0382852538690149
144,3.180,0.0452704405346955
145,3.187,0.0473520346228329
146,3.195,0.0271368790270595
147,3.202,0.0377098538771721
148,3.210,0.0313804539669006
149,3.217,0.039732215613208
150,3.225,0.0379637068147498
151,3.232,0.0319770083702083
152,3.240,0.0268957187363607
153,3.248,0.0375490803500395
154,3.255,0.0473012640353174
155,3.263,0.0502036492882894
156,3.270,0.0237437114281039
157,3.278,0.0389198862129593
158,3.285,0.0309108260323818
159,3.293,0.0157684983058701
160,3.300,0.0311350627939088
161,3.308,0.0449573552450163
162,3.315,0.0414880317647873
163,3.323,0.0155781086026868
164,3.330,0.0291634716453884
165,3.338,0.0261806996288501
166,3.345,0.0205747805906752
167,3.353,0.0306527422125111
168,3.361,0.0201516923613789
169,3.368,0.0243529584782904
170,3.376,0.00673133372810286
171,3.383,0.0185524188546392
172,3.391,0.00615170285396704
173,3.398,0.0307965922104718
174,3.406,0.0104291248521518
175,3.413,0.0194832129590909
176,3.421,0.0176512409262383
177,3.428,0.029328476054814
178,3.436,0.016009658596569
179,3.443,0.0339570612833146
180,3.451,0.0119099336546886
181,3.459,0.0203463129468552
182,3.466,0.00799636753369855
183,3.474,0.0401214567841605
184,3.481,0.0209470982324558
185,3.489,0.0788848003522802
186,3.496,0.0618004976532988
187,3.504,0.033356275997714
188,3.511,0.0134795909853776
189,3.519,0.0206086276490189
190,3.526,0.0203505438291482
191,3.534,0.0210697938189517
192,3.541,0.0161323541830649
193,3.549,0.0101033469155937
194,3.556,0.0114910763076853
195,3.564,0.0259860790433738
196,3.572,0.00711211313446946
197,3.579,0.0148123189076607
198,3.587,0.00330431907080348
199,3.594,0.0202870805947537
200,3.602,0.014435770383587
201,3.609,0.0145965439107196
202,3.617,0.0183451056222841
203,3.624,0.0120791689464071
204,3.632,0.0196059085455868
205,3.639,0.0132130454009209
206,3.647,0.00917678369343501
207,3.654,0.0307331289760774
208,3.662,0.0131749674602843
209,3.669,0.0181716394482726
210,3.677,0.0112160689586428
211,3.685,0.00160350438903267
212,3.692,0.021154411464811
213,3.700,0.0220175114525753
214,3.707,0.0211459497002251
215,3.715,0.0101498866208163
216,3.722,0.00483589846085579
217,3.730,0.00554668668607344
218,3.737,0.0243910364189271
219,3.745,0.0253218305233788
220,3.752,0.0170758409343954
221,3.760,0.00876215722872471
222,3.767,0.026079158453819
223,3.775,0.0174227732824183
224,3.783,0.0199613026581957
225,3.790,0.0196016776632939
226,3.798,0.000363855877194749
227,3.805,0.0182943350347685
228,3.813,0.0176893188668749
229,3.820,0.020705937941757
230,3.828,0.0132849703999013
231,3.835,0.00587669550492449
232,3.843,0.0315200730825684
233,3.850,0.0115079998368572
234,3.858,0.0161746630059945
235,3.865,0.0153750262526246
236,3.873,0.0136403645125101
237,3.880,0.0155992630141516
238,3.888,0.0194874438413839
239,3.896,0.00841945576299477
240,3.903,0.00677364255103248
241,3.911,0.0196778335445672
242,3.918,0.0105814366146985
243,3.926,0.0245221937700089
244,3.933,0.0140888380355641
245,3.941,0.00692172343128616
246,3.948,0.0079582895930619
247,3.956,0.0234348570207176
248,3.963,0.0338343656968187
249,3.971,0.0715865283969204
250,3.978,0.0556614874462107
251,3.986,0.0224617540933363
252,3.994,0.0236464011353657
253,4.001,0.0192420526683921
254,4.009,0.0272976525541921
255,4.016,0.0174820056345198
256,4.024,0.0113853042503613
257,4.031,0.0185016482671237
258,4.039,0.0190643556120877
259,4.046,0.0110045248439947
260,4.054,0.0249156658232544
261,4.061,0.0161662012414086
262,4.069,0.0100906542687148
263,4.076,0.014321536561677
264,4.084,0.017350848283438
265,4.091,0.0218736614546146
266,4.099,0.0265022466831152
267,4.107,0.0253175996410858
268,4.114,0.0221444379213641
269,4.122,0.0340670642229316
270,4.129,0.0163185130039552
271,4.137,0.0181420232722219
272,4.144,0.0195509070757783
273,4.152,0.0144823100888096
274,4.159,0.033017805414277
275,4.167,0.0290153907651348
276,4.174,0.0125064880579963
277,4.182,0.0312619892626977
278,4.189,0.0283849893034834
279,4.197,0.0204351614750074
280,4.205,0.0282876790107453
281,4.212,0.0291803951745603
282,4.220,0.0132468924592646
283,4.227,0.0172662306375787
284,4.235,0.0224194452704067
285,4.242,0.00511936757448426
286,4.250,0.0222967496839108
287,4.257,0.0131791983425772
288,4.265,0.0208074791167881
289,4.272,0.0242725717147241
290,4.280,0.0172619997552858
291,4.287,0.0298573363414342
292,4.295,0.0104883572042533
293,4.302,0.0161662012414086
294,4.310,0.0111018351367328
295,4.318,0.0214251879315606
296,4.325,0.0234771658436472
297,4.333,0.0195635997226572
298,4.340,0.0252752908181562
299,4.348,0.0235956305478502
300,4.355,0.0209090202918192
301,4.363,0.0144992336179815
302,4.370,0.000621939697065443
303,4.378,0.0231936967300188
304,4.385,0.00873677193496694
305,4.393,0.0149857850816721
306,4.400,0.0302931172176093
307,4.408,0.0192632070798569
308,4.416,0.0696995548942592
309,4.423,0.125322964399833
310,4.431,0.0569011359580486
311,4.438,0.0249198967055473
312,4.446,0.017790860041906
313,4.453,0.0298911833997779
314,4.461,0.0121807101214382
315,4.468,0.00933332633827461
316,4.476,0.0203040041239256
317,4.483,0.015552723308929
318,4.491,0.0213913408732169
319,4.498,0.0316046907284276
320,4.506,0.0125487968809259
321,4.513,0.0179516335690386
322,4.521,0.0323112480713523
323,4.529,0.0207228614709288
324,4.536,0.0248310481773951
325,4.544,0.0220555893932119
326,4.551,0.0233121614342217
327,4.559,0.0345324612751575
328,4.566,0.0223052114484967
329,4.574,0.0261426216882134
330,4.581,0.00958717927585234
331,4.589,0.0324847142453638
332,4.596,0.0313889157314865
333,4.604,0.0237394805458109
334,4.611,0.0189501217901777
335,4.619,0.0156500336016672
336,4.626,0.0160773527132564
337,4.634,0.00392202788557596
338,4.642,0.0358355730213898
339,4.649,0.0452365934763518
340,4.657,0.0121510939453874
341,4.664,0.00654517490721252
342,4.672,0.0127053395257655
343,4.679,0.0229567673216129
344,4.687,0.0267391760915211
345,4.694,0.0209682526439207
346,4.702,0.0186708835588422
347,4.709,0.0151296350796328
348,4.717,0.0171858438740124
349,4.724,0.0117703145390208
350,4.732,0.0119860895359619
351,4.740,0.020925943820991
352,4.747,0.0226944526194492
353,4.755,0.0206128585313118
354,4.762,0.0117872380681927
355,4.770,0.0177020115137538
356,4.777,0.0227494540892577
357,4.785,0.0177062423960468
358,4.792,0.0245391172991807
359,4.800,0.0179558644513316
360,4.807,0.00828829841191295
361,4.815,0.0180912526847064
362,4.822,0.0141819174460093
363,4.830,0.0296923319320087
364,4.837,0.0275388128448909
365,4.845,0.028317295186796
366,4.853,0.0165046718248455
367,4.860,0.0216875026337242
368,4.868,0.0187047306171859
369,4.875,0.00768328224401935
370,4.883,0.0180404820971908
371,4.890,0.0193478247257161
372,4.898,0.0289773128244981
373,4.905,0.0204013144166637
374,4.913,0.00904985722464614
375,4.920,0.0221952085088797
376,4.928,0.0309277495615537
377,4.935,0.00512782933907018
378,4.943,0.0208794041157684
379,4.951,0.00657056020097029
380,4.958,0.0170631482875165
381,4.966,0.0267518687384
382,4.973,0.0153115630182302
383,4.981,0.0194409041361613
384,4.988,0.0196778335445672
385,4.996,0.00897370134337282
386,5.003,0.03066543485939
387,5.011,0.0061897807946037
388,5.018,0.0210571011720729
389,5.026,0.0218059673379272
390,5.033,0.021717118809775
391,5.041,0.00297431025195243
392,5.048,0.0250468231743362
393,5.056,0.0243656511251693
394,5.064,0.0208074791167881
395,5.071,0.0185101100317096
396,5.079,0.0125276424694611
397,5.086,0.0121003233578719
398,5.094,0.0221148217453134
399,5.101,0.0232148511414836
400,5.109,0.00489513081295726
401,5.116,0.017342386518852
402,5.124,0.0205493952969174
403,5.131,0.0231217717310384
404,5.139,0.00133272792228309
405,5.146,0.0134457439270339
406,5.154,0.00919370722260686
407,5.162,0.0248902805294966
408,5.169,0.020033227657176
409,5.177,0.0184551085619011
410,5.184,0.0137969071573497
411,5.192,0.0263287805091038
412,5.199,0.0252329819952266
413,5.207,0.022047127628626
414,5.214,0.0212136438169125
415,5.222,0.0215436526357635
416,5.229,0.0169489144656066
417,5.237,0.0250595158212151
418,5.244,0.0205832423552611
419,5.252,0.007387120483512
420,5.259,0.0237775584864476
421,5.267,0.0211205644064673
422,5.275,0.0201516923613789
423,5.282,0.0230625393789369
424,5.290,0.0121680174745593
425,5.297,0.0284357598909989
426,5.305,0.0028093058425269
427,5.312,0.0125234115871681
428,5.320,0.0134118968686902
429,5.327,0.0216409629285016
430,5.335,0.029095777528701
431,5.342,0.00541552933499161
432,5.350,0.023172542318554
433,5.357,0.0129718851102221
434,5.365,0.0171900747563054
435,5.372,0.0257491496349679
436,5.380,0.0238114055447913
437,5.388,0.0283299878336749
438,5.395,0.0264260908018419
439,5.403,0.0150957880212891
440,5.410,0.0193266703142513
441,5.418,0.0273314996125358
442,5.425,0.00878754252248248
443,5.433,0.0183027967993545
444,5.440,0.0204393923573004
445,5.448,0.0130226556977376
446,5.455,0.0183958762097996
447,5.463,0.0286642275348189
448,5.470,0.0345620774512082
449,5.478,0.0364702053653342
450,5.486,0.0345747700980871
451,5.493,0.0166400600582203
452,5.501,0.0308135157396437
453,5.508,0.0278434363699842
454,5.516,0.013547285102065
455,5.523,0.0361951980162916
456,5.531,0.0255841452255424
457,5.538,0.0246998908263133
458,5.546,0.0190347394360369
459,5.553,0.0227706085007226
460,5.561,0.0165554424123611
461,5.568,0.0158361924225575
462,5.576,0.0263245496268108
463,5.583,0.0344393818647123
464,5.591,0.0106110527907492
465,5.599,0.0243741128897552
466,5.606,0.0249368202347192
467,5.614,0.0114360748378768
468,5.621,0.0201897703020156
469,5.629,0.0266799437394196
470,5.636,0.025626454048472
471,5.644,0.0262526246278304
472,5.651,0.0196482173685164
473,5.659,0.0254656805213395
474,5.666,0.0208074791167881
475,5.674,0.0295950216392706
476,5.681,0.0120749380641141
477,5.689,0.0284992231253934
478,5.697,0.0246448893565048
479,5.704,0.0299884936925161
480,5.712,0.0245856570044033
481,5.719,0.0305300466260152
482,5.727,0.0407307038343471
483,5.734,0.0502078801705824
484,5.742,0.0267222525623492
485,5.749,0.0357467244932376
486,5.757,0.0307373598583704
487,5.764,0.0353151744993555
488,5.772,0.019364748254888
489,5.779,0.0311054466178581
490,5.787,0.0356324906713276
491,5.794,0.0225421408569026
492,5.802,0.0231429261425032
493,5.810,0.0189628144370566
494,5.817,0.0105687439678196
495,5.825,0.0110679880783891
496,5.832,0.0232106202591906
497,5.840,0.0149900159639651
498,5.847,0.0150704027275313
499,5.855,0.0261172363944557
500,5.862,0
501,5.870,0.0114318439555839
502,5.877,0.00900331751942356
503,5.885,0.0428757611568789
504,5.892,0.0320573951337746
505,5.900,0.0346340024501886
506,5.908,0.0131115042258899
507,5.915,0.0289646201776192
508,5.923,0.0188485806151466
509,5.930,0.0240991055407127
510,5.938,0.0286176878295963
511,5.945,0.0127688027601599
512,5.953,0.0326243333610315
513,5.960,0.0218736614546146
514,5.968,0.0309023642677959
515,5.975,0.0201940011843086
516,5.983,0.021932893806716
517,5.990,0.0218567379254427
518,5.998,0.0185228026785885
519,6.005,0.0318331583722476
520,6.013,0.0268449481488451
521,6.021,0.0352770965587188
522,6.028,0.0369229097706811
523,6.036,0.0450885125960981
524,6.043,0.0290238525297207
525,6.051,0.0356705686119643
526,6.058,0.0278984378397927
527,6.066,0.0364998215413849
528,6.073,0.0385348759242997
529,6.081,0.0314819951419317
530,6.088,0.0285499937129089
531,6.096,0.0327004892423048
532,6.103,0.0322858627775945
533,6.111,0.0290661613526503
534,6.119,0.0406841641291245
535,6.126,0.0473774199165907
536,6.134,0.0703849578257191
537,6.141,0.0906339604798362
538,6.149,0.0871223281766776
539,6.156,0.0523487066108213
540,6.164,0.0435188552654092
541,6.171,0.0366140553632949
542,6.179,0.0361063494881394
543,6.186,0.0359498068432998
544,6.194,0.0347186200960478
545,6.201,0.0254149099338239
546,6.209,0.0334451245258662
547,6.216,0.0250172069982855
548,6.224,0.0324804833630708
549,6.232,0.0414922626470803
550,6.239,0.0536433565924677
551,6.247,0.0331870407059955
552,6.254,0.0230921555549877
553,6.262,0.0334535862904521
554,6.269,0.0375702347615043
555,6.277,0.0436711670279558
556,6.284,0.0359074980203702
557,6.292,0.0224744467402152
558,6.299,0.0352263259712033
559,6.307,0.0303227333936601
560,6.314,0.0365125141882638
561,6.322,0.0281692143065423
562,6.329,0.042528828808856
563,6.337,0.0284949922431004
564,6.345,0.0319727774879153
565,6.352,0.0303904275103475
566,6.360,0.0418095788190524
567,6.367,0.0216959643983102
568,6.375,0.0236083231947291
569,6.382,0.0174312350470043
570,6.390,0.0306950510354407
571,6.397,0.0282496010701086
572,6.405,0.0365463612466075
573,6.412,0.0354082539098006
574,6.420,0.0355986436129839
575,6.427,0.020143230596793
576,6.435,0.0398041406121884
577,6.443,0.0169319909364347
578,6.450,0.023951024660459
579,6.458,0.0227621467361366
580,6.465,0.0257999202224835
581,6.473,0.035484409791074
582,6.480,0.0347905450950282
583,6.488,0.0228890732049255
584,6.495,0.0411072523584207
585,6.503,0.0293707848777436
586,6.510,0.0186708835588422
587,6.518,0.0166019821175837
588,6.525,0.0213194158742365
589,6.533,0.0248860496472036
590,6.540,0.0285923025358385
591,6.548,0.032116627485876
592,6.556,0.0158785012454871
593,6.563,0.0395587494391966
594,6.571,0.0301577289842345
595,6.578,0.0236929408405883
596,6.586,0.0306188951541674
597,6.593,0.0274415025521528
598,6.601,0.0297854113424539
599,6.608,0.0301661907488205
600,6.616,0.0266841746217126
601,6.623,0.0359159597849561
602,6.631,0.0236252467239009
603,6.638,0.0307373598583704
604,6.646,0.0362544303683931
605,6.654,0.0274288099052739
606,6.661,0.027978824603359
607,6.669,0.0307162054469056
608,6.676,0.0412172552980377
609,6.684,0.012531873351754
610,6.691,0.0249283584701333
611,6.699,0.0202236173603593
612,6.706,0.021708657045189
613,6.714,0.0277418951949531
614,6.721,0.0256518393422298
615,6.729,0.0289688510599122
616,6.736,0.0353997921452147
617,6.744,0.0220259732171612
618,6.751,0.0209809452907995
619,6.759,0.0452746714169885
620,6.767,0.0249241275878403
621,6.774,0.0315962289638417
622,6.782,0.0276361231376291
623,6.789,0.030889671620917
624,6.797,0.0245856570044033
625,6.804,0.0225759879152463
626,6.812,0.0248648952357388
627,6.819,0.0335339730540184
628,6.827,0.0246364275919189
629,6.834,0.0346255406856026
630,6.842,0.0242683408324312
631,6.849,0.0254910658150972
632,6.857,0.0171900747563054
633,6.865,0.0212347982283773
634,6.872,0.0315412274940332
635,6.880,0.0255926069901283
636,6.887,0.0358778818443194
637,6.895,0.0398549111997039
638,6.902,0.0427615273349689
639,6.910,0.0428122979224845
640,6.917,0.039512209733974
641,6.925,0.0433750052674485
642,6.932,0.0410395582417333
643,6.940,0.0289392348838614
644,6.947,0.0421861273431261
645,6.955,0.0319304686649857
646,6.962,0.0291761642922673
647,6.970,0.0409126317729445
648,6.978,0.0471785684488215
649,6.985,0.0434088523257922
650,6.993,0.0399818376684928
651,7.000,0.0439588670238772
652,7.008,0.0334239701144014
653,7.015,0.0397576009069658
654,7.023,0.0773489900799349
655,7.030,0.194836360473202
656,7.038,0.217801589559401
657,7.045,0.129071526111398
658,7.053,0.0811906312019446
659,7.060,0.079908673867177
660,7.068,0.0696445534244508
661,7.075,0.0516421492678966
662,7.083,0.0463704699308657
663,7.091,0.0499878742913484
664,7.098,0.0491459287150489
665,7.106,0.0545910742260912
666,7.113,0.054502225697939
667,7.121,0.0358271112568039
668,7.128,0.0481347478470309
669,7.136,0.0449108155397937
670,7.143,0.0385433376888856
671,7.151,0.0531271889527263
672,7.158,0.0828660605899576
673,7.166,0.140554140654497
674,7.173,0.14227187886544
675,7.181,0.10100808386218
676,7.189,0.0676475769821726
677,7.196,0.0554626359784415
678,7.204,0.06133086971878
679,7.211,0.0623208961753332
680,7.219,0.0869530928849591
681,7.226,0.137592523049424
682,7.234,0.306950510354407
683,7.241,0.315403813175746
684,7.249,0.195894081046443
685,7.256,0.134998992203838
686,7.264,0.13303163193761
687,7.271,0.202024629488945
688,7.279,0.249156658232544
689,7.286,0.202887729476709
690,7.294,0.170157624058354
691,7.302,0.146210830280188
692,7.309,0.117999307150716
693,7.317,0.120897461521395
