#"+EI TIC Scan ACE-Blank2.d "
#Point,X(Minutes),Y(Counts)
0,2.095,0.064591280615321
1,2.102,0.0750360036200812
2,2.110,0.0705869434260496
3,2.117,0.0519864692892407
4,2.125,0.0644314650115956
5,2.132,0.0705714773998826
6,2.140,0.055569432017922
7,2.147,0.0502748957267627
8,2.155,0.0520070906574634
9,2.163,0.0381804632641925
10,2.170,0.0687825737065698
11,2.178,0.0613227937520348
12,2.185,0.0371029967745602
13,2.193,0.0511461485341687
14,2.200,0.0359327341279262
15,2.208,0.0384846284454762
16,2.215,0.0441709707328654
17,2.223,0.0332519562589848
18,2.230,0.0406137847144624
19,2.238,0.0397373765650007
20,2.245,0.0892699030357489
21,2.253,0.138477642956991
22,2.260,0.0609206770716935
23,2.268,0.0218483396318725
24,2.276,0.0257096908315593
25,2.283,0.0344325295897302
26,2.291,0.0478106422241589
27,2.298,0.0345562577990659
28,2.306,0.0264469047455181
29,2.313,0.0341025876981681
30,2.321,0.0352470736345239
31,2.328,0.0202862709890086
32,2.336,0.0255859626222235
33,2.343,0.0345407917728989
34,2.351,0.0301690617097022
35,2.358,0.0296122847676913
36,2.366,0.0159248516099231
37,2.374,0.0398301727220026
38,2.381,0.0527907026499232
39,2.389,0.199836524103415
40,2.396,0.347191666080247
41,2.404,0.0901566218693219
42,2.411,0.0216472812917019
43,2.419,0.0345047043785093
44,2.426,0.0415211249162579
45,2.434,0.0318857906142358
46,2.441,0.0336025195187694
47,2.449,0.044537000018817
48,2.456,0.0444442038618152
49,2.464,0.01735288135934
50,2.471,0.0232866800654007
51,2.479,0.0377267931632947
52,2.487,0.0381907739483038
53,2.494,0.0383505895520291
54,2.502,0.0319373440347924
55,2.509,0.0356852777092547
56,2.517,0.036896783092334
57,2.524,0.0386238226809789
58,2.532,0.0215905725290897
59,2.539,0.030411362786318
60,2.547,0.0136719671316012
61,2.554,0.0387681722585373
62,2.562,0.0335870534926025
63,2.569,0.0251632245736597
64,2.577,0.0138111613671039
65,2.585,0.0239517191905804
66,2.592,0.0185592314003636
67,2.600,0.017022939467778
68,2.607,0.0515276438462873
69,2.615,0.0266376524015774
70,2.622,0.0321796451114082
71,2.630,0.0390517160715984
72,2.637,0.0292050127452944
73,2.645,0.00643386688545938
74,2.652,0.0313187029881136
75,2.660,0.0305093142853755
76,2.667,0.0274161090519816
77,2.675,0.0341541411187247
78,2.682,0.0430367954806209
79,2.690,0.0351903648719117
80,2.698,0.0263644192726276
81,2.705,0.015971249688424
82,2.713,0.0282306530967753
83,2.720,0.0318961012983471
84,2.728,0.0438977376039156
85,2.735,0.0374535600343449
86,2.743,0.0317517517207887
87,2.750,0.0365204431222711
88,2.758,0.0387166188379807
89,2.765,0.0486097202427857
90,2.773,0.0497696722053084
91,2.780,0.0222968543907146
92,2.788,0.0240548260316935
93,2.796,0.0229618935158943
94,2.803,0.0398198620378913
95,2.811,0.0321951111375752
96,2.818,0.0336746943075486
97,2.826,0.0331849368122613
98,2.833,0.0401343379032863
99,2.841,0.0376907057689051
100,2.848,0.0323136840048553
101,2.856,0.0320920042964621
102,2.863,0.031298081619891
103,2.871,0.0313754117507258
104,2.878,0.0381495312118585
105,2.886,0.0496923420744736
106,2.893,0.0491613418427409
107,2.901,0.0367215014624417
108,2.909,0.0308031687825479
109,2.916,0.0398662601163922
110,2.924,0.045047378882327
111,2.931,0.0233176121177346
112,2.939,0.0340665003037785
113,2.946,0.0521565955770774
114,2.954,1.08507061916431
115,2.961,16.7907067741968
116,2.969,56.6709945763224
117,2.976,100
118,2.984,31.143581173825
119,2.991,0.223020097327703
120,2.999,0.109654125523815
121,3.007,0.0842022017950386
122,3.014,0.0740822653397847
123,3.022,0.0671483302749267
124,3.029,0.0581419477036947
125,3.037,0.0889296504600756
126,3.044,0.0770672083900099
127,3.052,0.0512492553752818
128,3.059,0.0665348445703035
129,3.067,0.057476908578515
130,3.074,0.0356749670251434
131,3.082,0.0549662569974102
132,3.089,0.0478364189344372
133,3.097,0.0408921731854678
134,3.104,0.0375463561913467
135,3.112,0.042330513618996
136,3.120,0.0701487393513188
137,3.127,0.0988588392592702
138,3.135,0.0461970201607384
139,3.142,0.0354584426588058
140,3.150,0.0365823072269389
141,3.157,0.0605701138119089
142,3.165,0.0605701138119089
143,3.172,0.0442173688113663
144,3.180,0.05268759580881
145,3.187,0.0466506902616362
146,3.195,0.0400260757201175
147,3.202,0.0468981466803077
148,3.210,0.048949972818459
149,3.217,0.0397115998547225
150,3.225,0.0207193197216837
151,3.233,0.0307103726255461
152,3.240,0.0310145378068299
153,3.248,0.052852566754591
154,3.255,0.244291038649342
155,3.263,0.476224722391275
156,3.270,0.2467140494155
157,3.278,0.0467125543663041
158,3.285,0.0411911830246959
159,3.293,0.0371287734848385
160,3.300,0.0253849042820529
161,3.308,0.0515121778201203
162,3.315,0.0452020391439967
163,3.323,0.0355409281316963
164,3.331,0.0125274811952454
165,3.338,0.0290142650892351
166,3.346,0.023807369613022
167,3.353,0.0147185015688995
168,3.361,0.0202089408581737
169,3.368,0.0254570790708321
170,3.376,0.0319167226665697
171,3.383,0.0251168264951587
172,3.391,0.0171312016509467
173,3.398,0.0375618222175137
174,3.406,0.0203172030413425
175,3.413,0.0270139923716404
176,3.421,0.0141204818904433
177,3.428,0.0186778042676437
178,3.436,0.017682823250902
179,3.444,0.0190077461592057
180,3.451,0.028715255250007
181,3.459,0.0213328054263068
182,3.466,0.0171672890453363
183,3.474,0.0246580010522053
184,3.481,0.0415056588900909
185,3.489,0.0983587710798715
186,3.496,0.0473621274653168
187,3.504,0.0308031687825479
188,3.511,0.0143266955726696
189,3.519,0.0120067916476241
190,3.526,0.00806811031710251
191,3.534,0.00759381884798211
192,3.542,0.0224154272579947
193,3.549,0.012233626698073
194,3.557,0.00774332376759615
195,3.564,0.0181416486938554
196,3.572,0.0196418532320515
197,3.579,0.01326985045126
198,3.587,0.022621640940221
199,3.594,0.023461961695293
200,3.602,0.0159609390043127
201,3.609,0.0131925203204251
202,3.617,0.021075038323524
203,3.624,0.0185746974265306
204,3.632,0.0065627504368508
205,3.639,0.0130481707428667
206,3.647,0.00985701401041534
207,3.655,0.00792891608159979
208,3.662,0.0104241016365376
209,3.670,0.0110685193934946
210,3.677,0.00802686758065726
211,3.685,0.0206986983534611
212,3.692,0.0234516510111817
213,3.700,0.0126769861148595
214,3.707,0.0210956596917466
215,3.715,0.0158681428473109
216,3.722,0.00883625628339534
217,3.730,0.0132956271615383
218,3.737,0.0144762004922836
219,3.745,0.00525844889676969
220,3.753,0.0209925528506335
221,3.760,0.0155175795875262
222,3.768,0.0213946695309747
223,3.775,0.00863004260116908
224,3.783,0.0154196280884688
225,3.790,0.0104704997150385
226,3.798,0.00767630432087261
227,3.805,0.00283543813061111
228,3.813,0.00954769348707595
229,3.820,0.00659368248918474
230,3.828,0.0144040257035044
231,3.835,0.0162393274753182
232,3.843,0.00847022699744372
233,3.850,0.00407787556602434
234,3.858,0.0239774959008586
235,3.866,0.0150535988025171
236,3.873,0.00909917872823382
237,3.881,0.0138524041035492
238,3.888,0.0114500147056132
239,3.896,0.0216472812917019
240,3.903,0.019528435706827
241,3.911,0.0208791353254091
242,3.918,0.0218741163421508
243,3.926,0.0129141318494197
244,3.933,0.0260035453287317
245,3.941,0.0174662988845644
246,3.948,0.0132286077148147
247,3.956,0.030261857866704
248,3.963,0.0353089377391918
249,3.971,0.0888110775927955
250,3.979,0.0453103013271655
251,3.986,0.0308237901507706
252,3.994,0.0267356039006349
253,4.001,0.0143576276250035
254,4.009,0.0221164174187666
255,4.016,0.0180230758265753
256,4.024,0.0216679026599245
257,4.031,0.0211214364020249
258,4.039,0.0158423661370326
259,4.046,0.0286173037509495
260,4.054,0.014424647071727
261,4.061,0.00753711008536989
262,4.069,0.0226371069663879
263,4.077,0.0115634322308377
264,4.084,0.013104879505479
265,4.092,0.149252307853313
266,4.099,0.267479767215685
267,4.107,0.151788736144696
268,4.114,0.0320146741656272
269,4.122,0.0176879785929576
270,4.129,0.004758380717371
271,4.137,0.0186829596096994
272,4.144,0.00999105290386241
273,4.152,0.0183323963499147
274,4.159,0.00692362438074676
275,4.167,0.0141514139427773
276,4.174,0.0128419570606405
277,4.182,0.0197965134937212
278,4.190,0.022951582831783
279,4.197,0.024467253396146
280,4.205,0.00288699155116767
281,4.212,0.0218328736057055
282,4.220,0.020384222488066
283,4.227,0.0142390547577234
284,4.235,0.0154866475351923
285,4.242,0.0217967862113159
286,4.250,0.0257096908315593
287,4.257,0.0320920042964621
288,4.265,0.0346645199822347
289,4.272,0.0158629875052552
290,4.280,0.0171827550715033
291,4.288,0.0172343084920599
292,4.295,0.0242661950559754
293,4.303,0.0123161121709635
294,4.310,0.0219256697627073
295,4.318,0.0270088370295847
296,4.325,0.00476869140148232
297,4.333,0.0283956240425563
298,4.340,0.00934147980484968
299,4.348,0.0256014286483905
300,4.355,0.0162444828173738
301,4.363,0.00914557680673473
302,4.370,0.0206368342487932
303,4.378,0.00670710001440918
304,4.385,0.0298803625545854
305,4.393,0.0110221213149937
306,4.401,0.00845476097127675
307,4.408,0.02807083749305
308,4.416,0.113489700013223
309,4.423,0.13470393257225
310,4.431,0.0272872255005902
311,4.438,0.00552137134160817
312,4.446,0.0126048113260803
313,4.453,0.0311588873843882
314,4.461,0.0212451646113607
315,4.468,0.0167445509967725
316,4.476,0.0299680033695316
317,4.483,0.0176003377780115
318,4.491,0.0154969582193036
319,4.499,0.011032431999105
320,4.506,0.0264314387193512
321,4.514,0.0143937150193931
322,4.521,0.0202295622263963
323,4.529,0.0249724769176004
324,4.536,0.0121872286195721
325,4.544,0.0139503556026066
326,4.551,0.0174044347798965
327,4.559,0.0176158038041785
328,4.566,0.0148267637520683
329,4.574,0.022606174914054
330,4.581,0.0207914945104629
331,4.589,0.0116149856513942
332,4.596,0.0255962733063348
333,4.604,0.00926414967401483
334,4.612,0.011754179886897
335,4.619,0.011888218780344
336,4.627,0.018507677979807
337,4.634,0.0198119795198882
338,4.642,0.0138060060250483
339,4.649,0.0102900627430905
340,4.657,0.0300607995265334
341,4.664,0.0238434570074116
342,4.672,0.0247507972092071
343,4.679,0.0190541442377066
344,4.687,0.0305711783900434
345,4.694,0.0196212318638289
346,4.702,0.0293235856125745
347,4.710,0.0205234167235688
348,4.717,0.0169249879687205
349,4.725,0.0314785185918389
350,4.732,0.0319888974553489
351,4.740,0.0120635004102363
352,4.747,0.0217916308692603
353,4.755,0.0279883520201595
354,4.762,0.0302876345769823
355,4.770,0.0112386456813313
356,4.777,0.0291070612462369
357,4.785,0.0280656821509943
358,4.792,0.0169507646789988
359,4.800,0.0241424668466397
360,4.807,0.0201934748320067
361,4.815,0.0190696102638736
362,4.823,0.0346438986140121
363,4.830,0.0171930657556146
364,4.838,0.0425470379853336
365,4.845,0.0476405159363223
366,4.853,0.0322208878478535
367,4.860,0.00804233360682423
368,4.868,0.00913526612262342
369,4.875,0.0237661268765767
370,4.883,0.032122936348796
371,4.890,0.0166569101818263
372,4.898,0.0294112264275207
373,4.905,0.0234258743009034
374,4.913,0.012728539535416
375,4.920,0.0184922119536401
376,4.928,0.0249209234970438
377,4.936,0.0268954195043603
378,4.943,0.0204357759086226
379,4.951,0.0271789633174214
380,4.958,0.0245600495531478
381,4.966,0.0149195599090701
382,4.973,0.0182035127985233
383,4.981,0.0315403826965068
384,4.988,0.0253436615456076
385,4.996,0.0202244068843407
386,5.003,0.0200491252544484
387,5.011,0.0281172355715509
388,5.018,0.0497181187847518
389,5.026,0.0199408630712796
390,5.034,0.039778619301446
391,5.041,0.0383196574996952
392,5.049,0.0711643417362831
393,5.056,0.089403941929196
394,5.064,0.0971214889865139
395,5.071,0.0616063375650959
396,5.079,0.0357265204456999
397,5.086,0.0314785185918389
398,5.094,0.0430574168488436
399,5.101,0.0243796125811999
400,5.109,0.0386959974697581
401,5.116,0.0239620298746917
402,5.124,0.0247868846035967
403,5.131,0.0303804307339841
404,5.139,0.02245666999444
405,5.147,0.0422634941722725
406,5.154,0.0345047043785093
407,5.162,0.0255292538596113
408,5.169,0.021765854158982
409,5.177,0.0156928612174186
410,5.184,0.0264881474819634
411,5.192,0.020203785516118
412,5.199,0.0274418857622599
413,5.207,0.0133471805820948
414,5.214,0.0317362856946218
415,5.222,0.0107540435280996
416,5.229,0.0226577283346106
417,5.237,0.0180643185630206
418,5.245,0.0244517873699791
419,5.252,0.0265190795342973
420,5.260,0.0329993444982576
421,5.267,0.016662065523882
422,5.275,0.0233949422485695
423,5.282,0.0229309614635604
424,5.290,0.0123831316176871
425,5.297,0.0295658866891904
426,5.305,0.020384222488066
427,5.312,0.0197191833628863
428,5.320,0.0307413046778801
429,5.327,0.0219926892094309
430,5.335,0.0240806027419718
431,5.342,0.0190025908171501
432,5.350,0.0259365258820081
433,5.358,0.0132595397671487
434,5.365,0.0210028635347448
435,5.373,0.0337107817019382
436,5.380,0.0236475540092966
437,5.388,0.0264778367978521
438,5.395,0.0275398372613173
439,5.403,0.0352367629504126
440,5.410,0.034344888774784
441,5.418,0.0340871216720012
442,5.425,0.0240238939793596
443,5.433,0.0221576601552119
444,5.440,0.0109447911841589
445,5.448,0.0222556116542694
446,5.456,0.0408303090807999
447,5.463,0.0228536313327255
448,5.471,0.0411086975518054
449,5.478,0.0407323575817425
450,5.486,0.033654072939326
451,5.493,0.0354223552644162
452,5.501,0.0267768466370802
453,5.508,0.0206677663011271
454,5.516,0.0364585790176032
455,5.523,0.0281894103603301
456,5.531,0.0143266955726696
457,5.538,0.00907340201795554
458,5.546,0.0311640427264439
459,5.553,0.0200800573067823
460,5.561,0.0186726489255881
461,5.569,0.0239517191905804
462,5.576,0.00849084836566635
463,5.584,0.00371184628007272
464,5.591,0.0226628836766662
465,5.599,0.0270243030557517
466,5.606,0.0291225272724039
467,5.614,0.00633591538640191
468,5.621,0.0276377887603748
469,5.629,0.023642398667241
470,5.636,0.0144916665184506
471,5.644,0.0143782489932261
472,5.651,0.0117438692027856
473,5.659,0.0223020097327703
474,5.666,0.0209049120356873
475,5.674,0.00678443014524403
476,5.682,0.0169043666004979
477,5.689,0.0123006461447965
478,5.697,0.0199563290974465
479,5.704,0.00788251800309888
480,5.712,0.0225340001252748
481,5.719,0.0147752103315117
482,5.727,0.0179818330901301
483,5.734,0.031942499376848
484,5.742,0.0269160408725829
485,5.749,0.0180591632209649
486,5.757,0.0155485116398602
487,5.764,0.0179045029592952
488,5.772,0.0259210598558412
489,5.780,0.0166414441556594
490,5.787,0.0252714867568284
491,5.795,0.0211833005066928
492,5.802,0.0175384736733436
493,5.810,0.0260499434072326
494,5.817,0.0165538033407132
495,5.825,0.0206059021964593
496,5.832,0.0196109211797175
497,5.840,0.0278182257323228
498,5.847,0.0305557123638764
499,5.855,0
500,5.862,0.0155742883501385
501,5.870,0.015790812716476
502,5.877,0.0161929293968172
503,5.885,0.0157753466903091
504,5.893,0.0075474207694812
505,5.900,0.0163888323949322
506,5.908,0.00217039900543141
507,5.915,0.0233382334859572
508,5.923,0.0202089408581737
509,5.930,0.00949098472446372
510,5.938,0.0121253645149042
511,5.945,0.0140225303913858
512,5.953,0.0221576601552119
513,5.960,0.0120016363055685
514,5.968,0.026524234876353
515,5.975,0.0126924521410264
516,5.983,0.0081763725002713
517,5.991,0.0167445509967725
518,5.998,0.0133781126344288
519,6.006,0.0208842906674647
520,6.013,0.0282615851491092
521,6.021,0.0287564979864523
522,6.028,0.0173889687537296
523,6.036,0.00992403345713887
524,6.043,0.0112541117074983
525,6.051,0.0222556116542694
526,6.058,0.00492850700520767
527,6.066,0.0228587866747812
528,6.073,0.0462382628971837
529,6.081,0.0331643154440386
530,6.088,0.0371081521166159
531,6.096,0.031463052565672
532,6.104,0.028911158248122
533,6.111,0.0304886929171529
534,6.119,0.0227505244916124
535,6.126,0.0277872936799888
536,6.134,0.0494809730501916
537,6.141,0.0385052498136988
538,6.149,0.0409746586583583
539,6.156,0.0432120771105133
540,6.164,0.0252714867568284
541,6.171,0.0416912512040946
542,6.179,0.0717726720988506
543,6.186,0.0572036754495652
544,6.194,0.046939389416753
545,6.202,0.0226422623084436
546,6.209,0.0271377205809761
547,6.217,0.0236063112728514
548,6.224,0.0267871573211915
549,6.232,0.0337468690963278
550,6.239,0.0299731587115872
551,6.247,0.0395156968566075
552,6.254,0.0435059316076857
553,6.262,0.0500893034127591
554,6.269,0.0172291531500042
555,6.277,0.0316383341955643
556,6.284,0.0346490539560677
557,6.292,0.0325508297394155
558,6.299,0.0210956596917466
559,6.307,0.013914268208217
560,6.315,0.0182035127985233
561,6.322,0.0202244068843407
562,6.330,0.0242455736877528
563,6.337,0.0240135832952482
564,6.345,0.034659364640179
565,6.352,0.015476336851081
566,6.360,0.0230650003570074
567,6.367,0.0366854140680521
568,6.375,0.0255601859119452
569,6.382,0.0281223909136065
570,6.390,0.0292617215079066
571,6.397,0.0121305198569599
572,6.405,0.0193840861292687
573,6.413,0.0205595041179584
574,6.420,0.0144762004922836
575,6.428,0.0233021460915676
576,6.435,0.0302876345769823
577,6.443,0.0227144370972228
578,6.450,0.0188891732919256
579,6.458,0.0208791353254091
580,6.465,0.0198119795198882
581,6.473,0.0297411683190827
582,6.480,0.030065954868589
583,6.488,0.0160588905033702
584,6.495,0.0246012922895931
585,6.503,0.0226474176504993
586,6.510,0.027709963549154
587,6.518,0.0236836414036862
588,6.526,0.0264262833772955
589,6.533,0.0157650360061978
590,6.541,0.0389589199145966
591,6.548,0.0203068923572312
592,6.556,0.0286069930668382
593,6.563,0.0240909134260831
594,6.571,0.0134399767390966
595,6.578,0.00938787788335059
596,6.586,0.0219102037365404
597,6.593,0.0276068567080409
598,6.601,0.00928992638429312
599,6.608,0.020894601351576
600,6.616,0.0221061067346553
601,6.623,0.0273954876837589
602,6.631,0.0402168233761768
603,6.639,0.0676638644804923
604,6.646,0.0785107041655937
605,6.654,0.0592555015877165
606,6.661,0.0491200991062957
607,6.669,0.0352728503448022
608,6.676,0.036040996311095
609,6.684,0.0367678995409426
610,6.691,0.0233021460915676
611,6.699,0.0212503199534163
612,6.706,0.0226938157290002
613,6.714,0.040108561193008
614,6.721,0.0245858262634261
615,6.729,0.0289936437210125
616,6.737,0.073283187321158
617,6.744,0.0459340977158999
618,6.752,0.0358708700232583
619,6.759,0.0322621305842987
620,6.767,0.0274212643940372
621,6.774,0.0297102362667487
622,6.782,0.0375102687969571
623,6.789,0.0287668086705636
624,6.797,0.0276377887603748
625,6.804,0.0143318509147252
626,6.812,0.0276480994444861
627,6.819,0.0188221538452021
628,6.827,0.0285296629360034
629,6.834,0.0311485767002769
630,6.842,0.028385313358445
631,6.850,0.0312259068311118
632,6.857,0.0262303803791806
633,6.865,0.0281584783079961
634,6.872,0.0297927217396392
635,6.880,0.0269108855305272
636,6.887,0.0256426713848357
637,6.895,0.0256168946745574
638,6.902,0.0352986270550804
639,6.910,0.0283543813061111
640,6.917,0.0224515146523843
641,6.925,0.033128228049649
642,6.932,0.0182344448508572
643,6.940,0.0410622994733045
644,6.948,0.0262819337997371
645,6.955,0.038412453656697
646,6.963,0.0204203098824556
647,6.970,0.0365719965428276
648,6.978,0.0426965429049476
649,6.985,0.0815111132419858
650,6.993,0.220767212849381
651,7.000,0.208647003676532
652,7.008,0.0983793924480941
653,7.015,0.0654573780806713
654,7.023,0.0919506809046904
655,7.030,0.117371672581133
656,7.038,0.0892286602993037
657,7.045,0.0759021010854315
658,7.053,0.063075610050958
659,7.061,0.0548219074198518
660,7.068,0.0547394219469613
661,7.076,0.0508058959584954
662,7.083,0.0390310947033758
663,7.091,0.0409746586583583
664,7.098,0.0375824435857363
665,7.106,0.0330766746290925
666,7.113,0.0390620267557097
667,7.121,0.0291070612462369
668,7.128,0.0244569427120347
669,7.136,0.0340407235935003
670,7.143,0.0277976043641002
671,7.151,0.0451814177757741
672,7.159,0.0424026884077752
673,7.166,0.0543424606086758
674,7.174,0.048949972818459
675,7.181,0.0439338249983052
676,7.189,0.0362420546512656
677,7.196,0.038592890628645
678,7.204,0.0356337242886981
679,7.211,0.037061754038115
680,7.219,0.0498315363099763
681,7.226,0.0765671402106112
682,7.234,0.116510730457838
683,7.241,0.0733605174519928
684,7.249,0.0570954132663964
685,7.256,0.0398043960117243
686,7.264,0.0459134763476773
687,7.272,0.0352419182924682
688,7.279,0.031777528431067
689,7.287,0.038561958576311
690,7.294,0.0321023149805734
691,7.302,0.0453566994056664
692,7.309,0.0384640070772536
693,7.317,0.0344325295897302
