#"+EI TIC Scan ACN-BLANK.d "
#Point,X(Minutes),Y(Counts)
0,2.095,0.159284134195039
1,2.102,0.153758156603312
2,2.110,0.128724899476392
3,2.117,0.144594002665199
4,2.125,0.116870086292046
5,2.133,0.139784087614809
6,2.140,0.123206154839628
7,2.148,0.113145114486104
8,2.155,0.1084943244449
9,2.163,0.101196272887239
10,2.170,0.104053290097622
11,2.178,0.0760834532557266
12,2.185,0.108747477868604
13,2.193,0.0821012717849371
14,2.200,0.085377800383173
15,2.208,0.107054966407264
16,2.215,0.0754831179937982
17,2.223,0.0771611635452126
18,2.230,0.0684454528148057
19,2.238,0.0731107087659364
20,2.246,0.0872222038987363
21,2.253,0.0689734585271042
22,2.261,0.0829475275156073
23,2.268,0.0472456618182723
24,2.276,0.0675991970841355
25,2.283,0.0607857535089958
26,2.291,0.0580227647131323
27,2.298,0.0687854016980664
28,2.306,0.072423578044452
29,2.313,0.0764595669138023
30,2.321,0.0771032999055087
31,2.328,0.0586086340651348
32,2.336,0.0626156911146331
33,2.343,0.0598237704989177
34,2.351,0.0403381898286137
35,2.359,0.0617839012938889
36,2.366,0.0323457745945061
37,2.374,0.0716351859534857
38,2.381,0.262867282220066
39,2.389,0.375679680777873
40,2.396,0.216930785250095
41,2.404,0.0777759647170671
42,2.411,0.0805244876030045
43,2.419,0.0619719581229267
44,2.426,0.0517445598052541
45,2.434,0.0609738103380336
46,2.441,0.048677786900945
47,2.449,0.0543845883667467
48,2.457,0.0201148477520844
49,2.464,0.067063958416874
50,2.472,0.0494589460369483
51,2.479,0.0434628263726268
52,2.487,0.068083805066656
53,2.494,0.0333005246496212
54,2.502,0.0572343726221661
55,2.509,0.0553682702417138
56,2.517,0.0733783280995671
57,2.524,0.0556214236654185
58,2.532,0.0451264060141153
59,2.539,0.0496036051362081
60,2.547,0.0742101179203114
61,2.554,0.0673966743451717
62,2.562,0.0477158038908669
63,2.570,0.0541603667628939
64,2.577,0.0397306216117222
65,2.585,0.0505221904165083
66,2.592,0.0469997413495305
67,2.600,0.0505728211012492
68,2.607,0.0588834863537285
69,2.615,0.0514407756968084
70,2.622,0.0554984634310477
71,2.630,0.065993481082351
72,2.637,0.0422549228938069
73,2.645,0.0582252874520961
74,2.652,0.0206934841491239
75,2.660,0.0394413034132025
76,2.668,0.0545220145110436
77,2.675,0.059476588660694
78,2.683,0.047520514106866
79,2.690,0.0707093677182226
80,2.698,0.0511080597685107
81,2.705,0.0556792873051225
82,2.713,0.0641780093866396
83,2.720,0.0536829917353363
84,2.728,0.0499073892446538
85,2.735,0.0394630022780915
86,2.743,0.044309082103297
87,2.750,0.0538927474292632
88,2.758,0.0638886911881199
89,2.765,0.0643588332607145
90,2.773,0.0448587866804845
91,2.781,0.0418860421906943
92,2.788,0.0484029346123512
93,2.796,0.071316935935114
94,2.803,0.0459220310600445
95,2.811,0.0677727880032473
96,2.818,0.0665070208847235
97,2.826,0.0555418611608256
98,2.833,0.0521640711931078
99,2.841,0.0617477365190739
100,2.848,0.0652340208112367
101,2.856,0.0719389700619315
102,2.863,0.0618996285732967
103,2.871,0.0473396902327912
104,2.879,0.0869979822948835
105,2.886,0.0867592947811048
106,2.894,0.0472167299984203
107,2.901,0.0549993895386011
108,2.909,0.0333945530641401
109,2.916,0.0512382529578446
110,2.924,0.0804810898732266
111,2.931,1.0998358987178
112,2.939,10.9054227488585
113,2.946,31.1477947298954
114,2.954,52.0732686765023
115,2.961,79.6093379763118
116,2.969,100
117,2.976,34.5298955387712
118,2.984,0.905674455691207
119,2.992,0.204743256137452
120,2.999,0.138757008010064
121,3.007,0.131618081461589
122,3.014,0.104993574242811
123,3.022,0.102295682041614
124,3.029,0.11946671712376
125,3.037,0.113347637225068
126,3.044,0.0793599818539626
127,3.052,0.0799386182510021
128,3.059,0.0915475109666063
129,3.067,0.0891823346937075
130,3.074,0.0799386182510021
131,3.082,0.0710203847816313
132,3.089,0.0600262932378815
133,3.097,0.0564315146212738
134,3.105,0.0414159001180997
135,3.112,0.0722716859902292
136,3.120,0.0827088400018285
137,3.127,0.0686407425988065
138,3.135,0.0494372471720593
139,3.142,0.0712880041152621
140,3.150,0.0634691798002663
141,3.157,0.0867809936459937
142,3.165,0.0621817138168535
143,3.172,0.0499652528843578
144,3.180,0.0402079966392798
145,3.187,0.0585435374704678
146,3.195,0.0392966443139426
147,3.203,0.0305664676736097
148,3.210,0.0481497811886465
149,3.218,0.050760877930287
150,3.225,0.0568510260091274
151,3.233,0.0493649176224293
152,3.240,0.0426889001915865
153,3.248,0.0379006840060849
154,3.255,0.0587460602094317
155,3.263,0.0837503855164995
156,3.270,0.0361430759500776
157,3.278,0.0506668495157681
158,3.285,0.0533864405818536
159,3.293,0.0575164578657228
160,3.300,0.0476579402511629
161,3.308,0.0382984965290496
162,3.316,0.0610389069327005
163,3.323,0.0289390528069362
164,3.331,0.0318973313868005
165,3.338,0.0273116379402627
166,3.346,0.0487645823605009
167,3.353,0.0262628594706287
168,3.361,0.0112617108773806
169,3.368,0.0301107915109411
170,3.376,0.0323602405044321
171,3.383,0.0308774847370184
172,3.391,0.0380887408351228
173,3.398,0.0167298248294035
174,3.406,0.0429131217954393
175,3.414,0.0293223994199749
176,3.421,0.0373148146540825
177,3.429,0.0445043718872978
178,3.436,0.0413652694333587
179,3.444,0.0317599052425036
180,3.451,0.0341684792451804
181,3.459,0.0434121956878858
182,3.466,0.0368808373563029
183,3.474,0.0439112695803324
184,3.481,0.0795408057280374
185,3.489,0.102085926347688
186,3.496,0.062724185439078
187,3.504,0.0166357964148846
188,3.511,0.00797794932418162
189,3.519,0.01297592120361
190,3.527,0.0177786032990376
191,3.534,0.0296189505734576
192,3.542,0.0330618371358424
193,3.549,0.0280349334365621
194,3.557,0.0299082687719773
195,3.564,0.0225306547097242
196,3.572,0.0391881499894978
197,3.579,0.0289752175817512
198,3.587,0.0171059384874792
199,3.594,0.014068097403022
200,3.602,0.0103358926421174
201,3.609,0.0110591881384168
202,3.617,0.0153338645215458
203,3.625,0.0381972351595677
204,3.632,0.0395425647826844
205,3.640,0.0222919671959454
206,3.647,0.0318322347921336
207,3.655,0.0169974441630343
208,3.662,0.023738558188544
209,3.670,0.0301975869704971
210,3.677,0.00867231300062898
211,3.685,0.0199629556978615
212,3.692,0.018422336290744
213,3.700,0.018393404470892
214,3.707,0.0332137291900653
215,3.715,0.0247656377932891
216,3.722,0.0387975704214961
217,3.730,0.0279481379770061
218,3.738,0.0245486491443993
219,3.745,0.0200497511574175
220,3.753,0.00676281289039874
221,3.760,0.0124334495813855
222,3.768,0.0242448650359536
223,3.775,0.02268977971891
224,3.783,0.0397595534315742
225,3.790,0.0375101044380833
226,3.798,0.0236011320442472
227,3.805,0.0116305915804932
228,3.813,0.0340238201459205
229,3.820,0.0239844786572858
230,3.828,0.0308196210973145
231,3.836,0.0154568247559167
232,3.843,0.0218507569432028
233,3.851,0.021633768294313
234,3.858,0.0357307975171869
235,3.866,0.0250043253070679
236,3.873,0.0373871442037124
237,3.881,0.0202161091215663
238,3.888,0.011869279094272
239,3.896,0.031369325674502
240,3.903,0.031318694989761
241,3.911,0.00621310831321125
242,3.918,0.0382117010694937
243,3.926,0.0143212508267268
244,3.933,0.0224872569799462
245,3.941,0.0449745139598924
246,3.949,0.0467104231510108
247,3.956,0.0353185190842963
248,3.964,0.0716713507283007
249,3.971,0.0750057429662406
250,3.979,0.0467031901960478
251,3.986,0.0339659565062166
252,3.994,0.0180896203624463
253,4.001,0.0243895241352134
254,4.009,0.0319985927562824
255,4.016,0.0201437795719364
256,4.024,0.0334379507939181
257,4.031,0.0195940749947489
258,4.039,0.0358103600217799
259,4.046,0.0271452799761139
260,4.054,0.0347905133719978
261,4.062,0.0321938825402832
262,4.069,0.0242159332161016
263,4.077,0.0333873201091771
264,4.084,0.0434338945527748
265,4.092,0.0413146387486178
266,4.099,0.0325844621082849
267,4.107,0.0431445763542551
268,4.114,0.0564676793960888
269,4.122,0.0358826895714098
270,4.129,0.0311306381607232
271,4.137,0.026986154966928
272,4.144,0.0262917912904807
273,4.152,0.00366710816623761
274,4.160,0.0214457114652752
275,4.167,0.0317454393325776
276,4.175,0.0222558024211304
277,4.182,0.034645854272738
278,4.190,0.0236372968190621
279,4.197,0.0305447688087207
280,4.205,0.0287654618878244
281,4.212,0.00834683002729428
282,4.220,0.042168127434251
283,4.227,0.0301614221956821
284,4.235,0.024903063937586
285,4.242,0.011934375688939
286,4.250,0.0227838081334289
287,4.257,0.0328014507571747
288,4.265,0.0159631316033262
289,4.273,0.0178943305784454
290,4.280,0.0230297286021707
291,4.288,0.031405490449317
292,4.295,0.0207296489239388
293,4.303,0.0168672509737004
294,4.310,0.0397450875216482
295,4.318,0.0262628594706287
296,4.325,0.0268921265524091
297,4.333,0.0207513477888278
298,4.340,0.0364757918783753
299,4.348,0.0119850063736799
300,4.355,0.0131205803028699
301,4.363,0.0239483138824708
302,4.371,0.0363745305088934
303,4.378,0.0323747064143581
304,4.386,0.0282880868602668
305,4.393,0.0141982905923559
306,4.401,0.0245486491443993
307,4.408,0.0607134239593658
308,4.416,0.147711406254249
309,4.423,0.13026551888351
310,4.431,0.0506162188310272
311,4.438,0.0452999969332271
312,4.446,0.042160894479288
313,4.453,0.0233407456655794
314,4.461,0.0326133939281368
315,4.468,0.0374594737533423
316,4.476,0.0417269171815084
317,4.484,0.0460883890241934
318,4.491,0.0450685423744113
319,4.499,0.0204041659506041
320,4.506,0.0289824505367142
321,4.514,0.0198255295535647
322,4.521,0.0323385416395431
323,4.529,0.031398257494354
324,4.536,0.0221762399165375
325,4.544,0.0351666270300735
326,4.551,0.0125202450409414
327,4.559,0.00874464255025891
328,4.566,0.0208526091583097
329,4.574,0.0326133939281368
330,4.582,0.0220243478623146
331,4.589,0.031325927944724
332,4.597,0.0319407291165785
333,4.604,0.00316080131882808
334,4.612,0.0267113026783343
335,4.619,0.0296044846635316
336,4.627,0.0379151499160109
337,4.634,0.0249970923521049
338,4.642,0.0206862511941609
339,4.649,0.0175760805600737
340,4.657,0.0404177523332066
341,4.664,0.0191745636068953
342,4.672,0.0154351258910277
343,4.679,0.0199991204726765
344,4.687,0.0268559617775942
345,4.695,0.0243388934504725
346,4.702,0.020541592094901
347,4.710,0.00839746071203523
348,4.717,0.00377560249068251
349,4.725,0.00120790347881988
350,4.732,0.0288811891672323
351,4.740,0.0192251942916362
352,4.747,0.0298576380872364
353,4.755,0.0168238532439224
354,4.762,0.0261326662812948
355,4.770,0.0297274448979025
356,4.777,0.031405490449317
357,4.785,0.0240712741168417
358,4.792,0.0360418145805957
359,4.800,0.0200063534276395
360,4.808,0
361,4.815,0.0257782514881082
362,4.823,0.000115727279407893
363,4.830,0.030320547204868
364,4.838,0.0436725820665536
365,4.845,0.00170697737126642
366,4.853,0.00960536419085511
367,4.860,0.00805751182877455
368,4.868,0.0277239163731534
369,4.875,0.0231382229266156
370,4.883,0.0239266150175819
371,4.890,0.0403743546034287
372,4.898,0.0323602405044321
373,4.906,0.028114495941155
374,4.913,0.00590209124980254
375,4.921,0.0301903540155341
376,4.928,0.00368880703112659
377,4.936,0.0108928301742679
378,4.943,0.0204258648154931
379,4.951,0.0146250349351725
380,4.958,0.0210912966720885
381,4.966,0.0204258648154931
382,4.973,0.0211853250866074
383,4.981,0.0106758415253781
384,4.988,0.0330184394060645
385,4.996,0.0167008930095516
386,5.003,0.0228416717731329
387,5.011,0.0381683033397157
388,5.019,0.0198761602383056
389,5.026,0.0307255926827956
390,5.034,0.0358392918416318
391,5.041,0.0315790813684288
392,5.049,0.0352317236247404
393,5.056,0.0375535021678613
394,5.064,0.0412784739738028
395,5.071,0.022675313808984
396,5.079,0.0290909448611591
397,5.086,0.0224944899349092
398,5.094,0.0574441283160929
399,5.101,0.0593536284263231
400,5.109,0.0459003321951555
401,5.117,0.0509127699845099
402,5.124,0.0563157873418659
403,5.132,0.0373654453388234
404,5.139,0.0462909117631572
405,5.147,0.0312391324851681
406,5.154,0.0318973313868005
407,5.162,0.0283242516350818
408,5.169,0.0337055701275488
409,5.177,0.0502184063080625
410,5.184,0.0338429962718457
411,5.192,0.037878985141196
412,5.199,0.0398825136659451
413,5.207,0.0585290715605419
414,5.214,0.0450468435095223
415,5.222,0.0358103600217799
416,5.230,0.0275069277242636
417,5.237,0.0441933548238891
418,5.245,0.0585724692903198
419,5.252,0.0427178320114385
420,5.260,0.0488079800902789
421,5.267,0.0553972020615658
422,5.275,0.0435134570573677
423,5.282,0.0385805817726063
424,5.290,0.0362371043645965
425,5.297,0.0481208493687945
426,5.305,0.0438968036704064
427,5.312,0.0436147184268497
428,5.320,0.0450902412393003
429,5.328,0.0436147184268497
430,5.335,0.0449383491850774
431,5.343,0.05516574750275
432,5.350,0.0493938494422813
433,5.358,0.045365093527894
434,5.365,0.038942229520756
435,5.373,0.0383491272137905
436,5.380,0.0608219182838107
437,5.388,0.0564242816663108
438,5.395,0.0658198901632391
439,5.403,0.048677786900945
440,5.410,0.0450830082843373
441,5.418,0.0580299976680953
442,5.425,0.0690096233019192
443,5.433,0.101095011517757
444,5.441,0.0747164247677209
445,5.448,0.0377560249068251
446,5.456,0.0265449447141854
447,5.463,0.031405490449317
448,5.471,0.0484897300719071
449,5.478,0.0393183431788316
450,5.486,0.047520514106866
451,5.493,0.0420379342449171
452,5.501,0.036786808941784
453,5.508,0.0539072133391891
454,5.516,0.0846111071570957
455,5.523,0.0777614988071411
456,5.531,0.0924443973820175
457,5.539,0.0745139020287571
458,5.546,0.105094835612293
459,5.554,0.104038824187696
460,5.561,0.109087426751865
461,5.569,0.0652195549013107
462,5.576,0.096234465782626
463,5.584,0.101471125175833
464,5.591,0.0824701524880497
465,5.599,0.102722426384431
466,5.606,0.110447222284908
467,5.614,0.109101892661791
468,5.621,0.0958366532596614
469,5.629,0.103843534403695
470,5.636,0.104451102620586
471,5.644,0.103149170727248
472,5.652,0.112740069008177
473,5.659,0.110006012032165
474,5.667,0.119148467105389
475,5.674,0.102679028654653
476,5.682,0.195297016955782
477,5.689,0.219606978586403
478,5.697,0.121889757036363
479,5.704,0.0780652829155868
480,5.712,0.075685640732762
481,5.719,0.0650965946669398
482,5.727,0.0772913567345465
483,5.734,0.0711722768358542
484,5.742,0.0559396736837903
485,5.749,0.0451987355637452
486,5.757,0.0359116213912618
487,5.765,0.0120211711484949
488,5.772,0.047614542521385
489,5.780,0.0330835360007314
490,5.787,0.0373582123838604
491,5.795,0.0192541261114882
492,5.802,0.0157027452246585
493,5.810,0.0222630353760934
494,5.817,0.00869401186551796
495,5.825,0.0171855009920721
496,5.832,0.0245269502795103
497,5.840,0.0147045974397654
498,5.847,0.0154568247559167
499,5.855,0.0159558986483632
500,5.863,0.029242836915382
501,5.870,0.0203463023109002
502,5.878,0.0231237570166896
503,5.885,0.0322734450448761
504,5.893,0.0369676328158588
505,5.900,0.0396944568369073
506,5.908,0.0409312921355791
507,5.915,0.0195868420397859
508,5.923,0.0200497511574175
509,5.930,0.029192206230641
510,5.938,0.0310076779263523
511,5.945,0.069233844905772
512,5.953,0.130511439352251
513,5.960,0.144868854953793
514,5.968,0.181677362760466
515,5.976,0.243598690198652
516,5.983,0.405363727945997
517,5.991,0.426831138276161
518,5.998,0.313997040853466
519,6.006,0.204258648154931
520,6.013,0.144586769710236
521,6.021,0.102201653627095
522,6.028,0.123372512803777
523,6.036,0.102765824114209
524,6.043,0.0866652663665858
525,6.051,0.0855875560770998
526,6.058,0.0972109147026301
527,6.066,0.184744135664775
528,6.074,0.385516499527543
529,6.081,0.534934883153059
530,6.089,0.834762565234021
531,6.096,1.2473230833682
532,6.104,0.993750148275577
533,6.111,0.633643019533029
534,6.119,0.393226829518094
535,6.126,0.255301611328775
536,6.134,0.212193199749335
537,6.141,0.188498039290569
538,6.149,0.163428617388834
539,6.156,0.171124481469459
540,6.164,0.150872207573077
541,6.171,0.240416190014935
542,6.179,0.269463737146316
543,6.187,0.263590577716365
544,6.194,0.21065981329718
545,6.202,0.158625935293406
546,6.209,0.141462133166223
547,6.217,0.114902722542112
548,6.224,0.125224149274303
549,6.232,0.105181631071849
550,6.239,0.107228557326376
551,6.247,0.0921840110033497
552,6.254,0.0748972486417957
553,6.262,0.0722355212154142
554,6.269,0.0687492369232514
555,6.277,0.0728213905674166
556,6.285,0.0760979191656526
557,6.292,0.0534804689963725
558,6.300,0.0661453731365738
559,6.307,0.0619140944832227
560,6.315,0.0513105825074745
561,6.322,0.0336983371725858
562,6.330,0.0522364007427377
563,6.337,0.0428841899755873
564,6.345,0.0506162188310272
565,6.352,0.0532056167077788
566,6.360,0.0499146221996168
567,6.367,0.038898831790978
568,6.375,0.0333873201091771
569,6.382,0.0474843493320511
570,6.390,0.0519687814091069
571,6.398,0.058369946551356
572,6.405,0.061632009239666
573,6.413,0.0433470990932189
574,6.420,0.0776602374376592
575,6.428,0.143031684393193
576,6.435,0.105803665198666
577,6.443,0.0736387144782349
578,6.450,0.0744343395241641
579,6.458,0.0556648213951965
580,6.465,0.0634113161605624
581,6.473,0.0403381898286137
582,6.480,0.0622757422313724
583,6.488,0.0460232924295264
584,6.495,0.0644890264500484
585,6.503,0.0510646620387328
586,6.511,0.045422957167598
587,6.518,0.0463994060876021
588,6.526,0.0381755362946787
589,6.533,0.0331630985053243
590,6.541,0.0456471787714508
591,6.548,0.0382333999343826
592,6.556,0.0520049461839219
593,6.563,0.0409240591806161
594,6.571,0.03460245654296
595,6.578,0.0526125144008133
596,6.586,0.0599322648233626
597,6.593,0.0611835660319604
598,6.601,0.0600262932378815
599,6.609,0.0386601442771992
600,6.616,0.0493793835323553
601,6.624,0.0217133307989059
602,6.631,0.0286569675633795
603,6.639,0.0477085709359039
604,6.646,0.0344360985788112
605,6.654,0.0311595699805752
606,6.661,0.0394702352330545
607,6.669,0.0299878312765703
608,6.676,0.0361286100401516
609,6.684,0.0328448484869526
610,6.691,0.0413218717035808
611,6.699,0.0471154686289384
612,6.706,0.0402441614140948
613,6.714,0.0397595534315742
614,6.722,0.0558745770891233
615,6.729,0.0341033826505135
616,6.737,0.0338285303619197
617,6.744,0.0085421198112951
618,6.752,0.0297057460330135
619,6.759,0.05729223626187
620,6.767,0.0372352521494896
621,6.774,0.0439619002650733
622,6.782,0.0419800706052132
623,6.789,0.0404683830179476
624,6.797,0.0377126271770471
625,6.804,0.0404828489278736
626,6.812,0.0394413034132025
627,6.820,0.051867520039625
628,6.827,0.0428552581557354
629,6.835,0.0456037810416728
630,6.842,0.0483884687024252
631,6.850,0.0433615650031449
632,6.857,0.0684526857697687
633,6.865,0.109478006319867
634,6.872,0.101630250185019
635,6.880,0.0688504982927333
636,6.887,0.0892257324234855
637,6.895,0.0587677590743206
638,6.902,0.0722210553054882
639,6.910,0.0779350897262529
640,6.917,0.0664853220198345
641,6.925,0.0654582424150894
642,6.933,0.0479761902695346
643,6.940,0.062695253619226
644,6.948,0.0617911342488518
645,6.955,0.0714832938992629
646,6.963,0.0729154189819356
647,6.970,0.094057346338765
648,6.978,0.506856551986719
649,6.985,2.24042949865207
650,6.993,2.79074164405645
651,7.000,1.30733491069615
652,7.008,0.623842365558173
653,7.015,0.426107842779862
654,7.023,0.318365745651114
655,7.031,0.264726151645555
656,7.038,0.25533777610359
657,7.046,0.236438064785288
658,7.053,0.216431711357649
659,7.061,0.225125723223167
660,7.068,0.228828996164219
661,7.076,0.160998344521268
662,7.083,0.132753655390779
663,7.091,0.159370929654595
664,7.098,0.154177667991165
665,7.106,0.14677112210906
666,7.113,0.506473205373681
667,7.121,1.44814607791571
668,7.128,1.50367347316661
669,7.136,0.771047464965013
670,7.144,0.461050248206083
671,7.151,0.349315559937762
672,7.159,0.281181124186365
673,7.166,0.284385323234971
674,7.174,0.396409329701811
675,7.181,1.69222937609688
676,7.189,4.53798487560185
677,7.196,3.70098732728427
678,7.204,1.6125800760444
679,7.211,0.904336359023054
680,7.219,0.72268792808244
681,7.226,0.546384650859478
682,7.234,0.435409422862271
683,7.242,0.467820294051444
684,7.249,0.42366310400237
685,7.257,0.343912542580406
686,7.264,0.302279653813416
687,7.272,0.271199646337434
688,7.279,0.285159249416011
689,7.287,0.280356567320584
690,7.294,0.249898593971419
691,7.302,0.235714769288989
692,7.309,0.198378255770017
693,7.317,0.198790534202908
694,7.324,0.1607379581426
695,7.332,0.159096077366001
696,7.339,0.17074113485642
697,7.347,0.151392980330413
698,7.355,0.157041918156511
699,7.362,0.144847156088904
