#"+EI TIC Scan ACN-End-Blank2.d "
#Point,X(Minutes),Y(Counts)
0,2.095,0.182360004437042
1,2.102,0.168737151402729
2,2.110,0.155650710857879
3,2.117,0.144831372155293
4,2.125,0.147898032236569
5,2.132,0.160599875147463
6,2.140,0.126603468503883
7,2.148,0.133850097606831
8,2.155,0.126714799397923
9,2.163,0.141997494852464
10,2.170,0.119205024545426
11,2.178,0.118020868672458
12,2.185,0.0923236741300199
13,2.193,0.114438038082453
14,2.200,0.101634985267886
15,2.208,0.0868785813124414
16,2.215,0.0998941749247201
17,2.223,0.0838018002407986
18,2.230,0.0985784461769781
19,2.238,0.0891456831547046
20,2.245,0.0838625261830021
21,2.253,0.0578414599488121
22,2.261,0.0996006662040699
23,2.268,0.081352520571925
24,2.276,0.089985725355186
25,2.283,0.0851681339403768
26,2.291,0.0690555172757209
27,2.298,0.0593292455327973
28,2.306,0.0596227542534474
29,2.313,0.0611915077603706
30,2.321,0.0777089640397164
31,2.328,0.0840953089614487
32,2.336,0.05792242787175
33,2.343,0.0670313192022716
34,2.351,0.0691466061890261
35,2.359,0.0632055848434526
36,2.366,0.0624465105659091
37,2.374,0.0863016848615084
38,2.381,0.152796591574316
39,2.389,0.346340290367165
40,2.396,0.300836317676026
41,2.404,0.13558078695963
42,2.411,0.0879817692624713
43,2.419,0.0817371182058804
44,2.426,0.0401297268061312
45,2.434,0.0915342368813747
46,2.441,0.0762920253883019
47,2.449,0.0779316258277958
48,2.456,0.0754823461589222
49,2.464,0.079338443488843
50,2.472,0.0844799065954041
51,2.479,0.110703392636939
52,2.487,0.0554225432510402
53,2.494,0.096027956604432
54,2.502,0.0790044508067239
55,2.509,0.0776178751264112
56,2.517,0.067496884759165
57,2.524,0.101149177730259
58,2.532,0.0778708998855923
59,2.539,0.0847531733353197
60,2.547,0.0959469886814941
61,2.554,0.0758467018121431
62,2.562,0.0774660602709025
63,2.570,0.0641063529861375
64,2.577,0.0790651767489274
65,2.585,0.0910180663726451
66,2.592,0.0910484293437469
67,2.600,0.0735593579891454
68,2.607,0.091463389948804
69,2.615,0.0725675009331553
70,2.622,0.0858563612853496
71,2.630,0.0727699207405002
72,2.637,0.0962708603732459
73,2.645,0.068853097468376
74,2.652,0.0674867637687977
75,2.660,0.0508478556050449
76,2.667,0.0607057002227428
77,2.675,0.0547444368964347
78,2.683,0.0587321071011297
79,2.690,0.0409191640547764
80,2.698,0.0645111926008273
81,2.705,0.0827289752618705
82,2.713,0.0853503117669873
83,2.720,0.0871619690427243
84,2.728,0.111857185538805
85,2.735,0.0781542876158752
86,2.743,0.0673045859421873
87,2.750,0.0730431874804159
88,2.758,0.0895100388079255
89,2.765,0.112302509114964
90,2.773,0.0774964232420042
91,2.781,0.0717578217037756
92,2.788,0.0643694987356859
93,2.796,0.098123001610452
94,2.803,0.0691364851986588
95,2.811,0.0992869155026853
96,2.818,0.0783668284135874
97,2.826,0.0606550952709065
98,2.833,0.0645111926008273
99,2.841,0.0600377148585045
100,2.848,0.0871214850812553
101,2.856,0.0922427062070819
102,2.863,0.0805023573810763
103,2.871,0.0801380017278555
104,2.878,0.0925058519566303
105,2.886,0.0804517524292401
106,2.894,0.0579325488621173
107,2.901,0.0632966737567578
108,2.909,0.0915443578717419
109,2.916,0.0578617019295466
110,2.924,0.0531858043798788
111,2.931,0.157067649509294
112,2.939,3.188344748461
113,2.946,18.8832985036318
114,2.954,45.7951333420239
115,2.961,74.4189337010357
116,2.969,100
117,2.976,44.0149422253386
118,2.984,1.69468899006281
119,2.992,0.263368411336481
120,2.999,0.211245310945163
121,3.007,0.160640359108932
122,3.014,0.156693172865706
123,3.022,0.163899318007185
124,3.029,0.14197725287173
125,3.037,0.149456664753125
126,3.044,0.130327992959029
127,3.052,0.10978238251352
128,3.059,0.125368707679079
129,3.067,0.109013187245609
130,3.074,0.107859394343743
131,3.082,0.11187742751954
132,3.089,0.113375334093892
133,3.097,0.0889129003762579
134,3.105,0.101594501306417
135,3.112,0.117798206884379
136,3.120,0.131765173591178
137,3.127,0.121755514117972
138,3.135,0.111452345924115
139,3.142,0.110106254205271
140,3.150,0.0784882802979943
141,3.157,0.109438268841033
142,3.165,0.112737711700755
143,3.172,0.101432565460541
144,3.180,0.0949348896447694
145,3.187,0.0922123432359802
146,3.195,0.0798647349879398
147,3.202,0.104863581195038
148,3.210,0.0578920649006483
149,3.218,0.064126594966872
150,3.225,0.0562322224804199
151,3.233,0.17468829373867
152,3.240,0.356977451243141
153,3.248,0.576228465568796
154,3.255,1.04413197123696
155,3.263,1.55913856607428
156,3.270,0.879453336971492
157,3.278,0.179080803558054
158,3.285,0.0847126893738508
159,3.293,0.0672033760385148
160,3.300,0.0854818846417615
161,3.308,0.0683571689403809
162,3.316,0.0796218312191259
163,3.323,0.0812007057164163
164,3.331,0.0848138992775232
165,3.338,0.0663734548284006
166,3.346,0.0591065837447179
167,3.353,0.0668491413756612
168,3.361,0.068772129545438
169,3.368,0.0935078300029877
170,3.376,0.045959417257665
171,3.383,0.0601490457525442
172,3.391,0.0412329147561611
173,3.398,0.0471334521402656
174,3.406,0.0363545973991484
175,3.413,0.03190136163756
176,3.421,0.0395427093648309
177,3.429,0.0690656382660881
178,3.436,0.0458683283443598
179,3.444,0.0448157453461662
180,3.451,0.0569508127964944
181,3.459,0.0551290345303901
182,3.466,0.0542080244069707
183,3.474,0.0693793889674728
184,3.481,0.0883258829349576
185,3.489,0.11764639202887
186,3.496,0.0716566118001031
187,3.504,0.0495827318091392
188,3.511,0.0597340851474871
189,3.519,0.054754557886802
190,3.527,0.0390467808368359
191,3.534,0.0428623942052877
192,3.542,0.0585904132359883
193,3.549,0.0418907791300321
194,3.557,0.028733491652612
195,3.564,0.0322657172907809
196,3.572,0.0130459565833804
197,3.579,0.0432571128296103
198,3.587,0.0420223520048063
199,3.594,0.0276404246929494
200,3.602,0.0447955033654317
201,3.609,0.0482872450421317
202,3.617,0.0558172618753628
203,3.624,0.0326300729440018
204,3.632,0.0182076616706759
205,3.640,0.0321645073871084
206,3.647,0.0324782580884931
207,3.655,0.0429636041089601
208,3.662,0.0553010913666333
209,3.670,0.0540258465803603
210,3.677,0.0547241949157002
211,3.685,0.0508478556050449
212,3.692,0.045261068922325
213,3.700,0.0339862856532128
214,3.707,0.0498964825105238
215,3.715,0.0704825769175026
216,3.722,0.00370428247441211
217,3.730,0.0300390994099867
218,3.738,0.0358384268904188
219,3.745,0.0381156497230492
220,3.753,0.0404940824593521
221,3.760,0.0330247915683244
222,3.768,0.048671842676087
223,3.775,0.0323972901655551
224,3.783,0.0299581314870488
225,3.790,0.0546533479831295
226,3.798,0.0498458775586876
227,3.805,0.03399640664358
228,3.813,0.0438947352227468
229,3.820,0.0314661590517685
230,3.828,0.0602704976369512
231,3.835,0.0360813306592327
232,3.843,0.0502304751926429
233,3.851,0.0195942373509887
234,3.858,0.0366481061197985
235,3.866,0.0449776811920421
236,3.873,0.0461314740939082
237,3.881,0.0438340092805433
238,3.888,0.0391075067790393
239,3.896,0.0425284015231686
240,3.903,0.0426093694461065
241,3.911,0.0475079287838537
242,3.918,0.0335915670288902
243,3.926,0.0302313982269644
244,3.933,0.0378322619927663
245,3.941,0.0337130189132971
246,3.948,0.0495220058669357
247,3.956,0.0576390401414672
248,3.964,0.0742172223630164
249,3.971,0.107565885623093
250,3.979,0.0638836911980581
251,3.986,0.0405042034497193
252,3.994,0.0186023802949985
253,4.001,0.0352817724202203
254,4.009,0.0348769328055304
255,4.016,0.0295836548434607
256,4.024,0.0442692118663349
257,4.031,0.0496434577513426
258,4.039,0.0245636436213065
259,4.046,0.0237539643919268
260,4.054,0.0469209113425534
261,4.062,0.0274380048856045
262,4.069,0.0828403061559102
263,4.077,0.165184683783825
264,4.084,0.305137738582106
265,4.092,0.730897440361052
266,4.099,1.06008265205573
267,4.107,0.498114661914389
268,4.114,0.0877995914358608
269,4.122,0.0372756075225678
270,4.129,0.0328628557224484
271,4.137,0.059400092465368
272,4.144,0.0321746283774757
273,4.152,0.0341785844701904
274,4.159,0
275,4.167,0.030008736438885
276,4.175,0.0279744173750685
277,4.182,0.0550885505689211
278,4.190,0.0603109815984202
279,4.197,0.0324175321462896
280,4.205,0.0409697690066127
281,4.212,0.0251405400722396
282,4.220,0.017387861450929
283,4.227,0.0355955231216049
284,4.235,0.020636699358815
285,4.242,0.0425182805328013
286,4.250,0.0482872450421317
287,4.257,0.0425587644942703
288,4.265,0.0437125573961364
289,4.273,0.0364962912642898
290,4.280,0.0422045298314167
291,4.288,0.038682425183615
292,4.295,0.0352615304394858
293,4.303,0.0558678668271991
294,4.310,0.0349072957766322
295,4.318,0.0392492006441808
296,4.325,0.0362331455147414
297,4.333,0.0258388884075796
298,4.340,0.0294925659301554
299,4.348,0.0271748591360561
300,4.355,0.0197764151775991
301,4.363,0.0282881680764532
302,4.370,0.0361521775918035
303,4.378,0.0260514292052917
304,4.386,0.0282476841149842
305,4.393,0.044805624355799
306,4.401,0.0316989418302151
307,4.408,0.0759782746869173
308,4.416,0.17766386490664
309,4.423,0.173534500836803
310,4.431,0.0706748757344803
311,4.438,0.0370225827633866
312,4.446,0.0224685986152866
313,4.453,0.0360813306592327
314,4.461,0.0247255794671825
315,4.468,0.0410001319777144
316,4.476,0.0428219102438187
317,4.484,0.0328628557224484
318,4.491,0.0307273267549595
319,4.499,0.0362331455147414
320,4.506,0.0528720536784942
321,4.514,0.0681851121041377
322,4.521,0.0274076419145027
323,4.529,0.0489147464449009
324,4.536,0.0482265190999282
325,4.544,0.0383585534918631
326,4.551,0.0382472225978234
327,4.559,0.0198877460716388
328,4.566,0.0377209310987266
329,4.574,0.0423867076580271
330,4.581,0.0455849406140769
331,4.589,0.00970602976218911
332,4.597,0.0295330498916244
333,4.604,0.0444918736544143
334,4.612,0.0490969242715114
335,4.619,0.0289763954214259
336,4.627,0.0500584183563997
337,4.634,0.0334802361348505
338,4.642,0.0276910296447856
339,4.649,0.0370529457344884
340,4.657,0.0335004781155849
341,4.664,0.00976675570439259
342,4.672,0.0464452247952928
343,4.679,0.032144265406374
344,4.687,0.0350894736032426
345,4.694,0.0194930274473162
346,4.702,0.0471334521402656
347,4.710,0.0339761646628455
348,4.717,0.0355651601505032
349,4.725,0.0488540205026974
350,4.732,0.0402410577001709
351,4.740,0.0132989813425615
352,4.747,0.0443906637507419
353,4.755,0.030089704361823
354,4.762,0.052619028919313
355,4.770,0.0361724195725379
356,4.777,0.0146248310806708
357,4.785,0.030089704361823
358,4.792,0.0355651601505032
359,4.800,0.0149993077242589
360,4.808,0.0212642007615843
361,4.815,0.0271141331938526
362,4.823,0.0450282861438784
363,4.830,0.0912913331125608
364,4.838,0.151187354105924
365,4.845,0.168757393383463
366,4.853,0.0775166652227387
367,4.860,0.0245434016405721
368,4.868,0.0185618963335295
369,4.875,0.0371440346477936
370,4.883,0.0139973296779015
371,4.890,0.0067911845364222
372,4.898,0.0237337224111924
373,4.905,0.0313851911288305
374,4.913,0.0311928923118528
375,4.921,0.0190477038711574
376,4.928,0.0386216992414115
377,4.936,0.0404535984978831
378,4.943,0.0435911055117294
379,4.951,0.0235515445845819
380,4.958,0.0428927571763894
381,4.966,0.0246850955057135
382,4.973,0.0076008637658019
383,4.981,0.0201104078597182
384,4.988,0.0349174167669994
385,4.996,0.0474978077934865
386,5.003,0.023308640815768
387,5.011,0.0222459368272072
388,5.019,0.0464755877663946
389,5.026,0.072800283711602
390,5.034,0.0329539446357537
391,5.041,0.0442084859241314
392,5.049,0.0202318597441252
393,5.056,0.0534185871583255
394,5.064,0.0392188376730791
395,5.071,0.0457772394310546
396,5.079,0.0326503149247363
397,5.086,0.0316584578687461
398,5.094,0.0136329740246806
399,5.101,0.0268206244732025
400,5.109,0.0328223717609794
401,5.116,0.0242094089584529
402,5.124,0.0312131342925873
403,5.132,0.0364254443317191
404,5.139,0.0349072957766322
405,5.147,0.0122059143828989
406,5.154,0.0229038012010782
407,5.162,0.028612039768205
408,5.169,0.0405548084015556
409,5.177,0.0434190486754862
410,5.184,0.0332778163275055
411,5.192,0.0449270762402059
412,5.199,0.0372351235610988
413,5.207,0.0288751855177534
414,5.214,0.0339356807013765
415,5.222,0.0281970791631479
416,5.230,0.0321746283774757
417,5.237,0.0487022056471888
418,5.245,0.0268206244732025
419,5.252,0.0452711899126923
420,5.260,0.0371743976188953
421,5.267,0.0495017638862012
422,5.275,0.0345125771523096
423,5.282,0.0337939868362351
424,5.290,0.0341583424894559
425,5.297,0.023430092700175
426,5.305,0.0478520424563401
427,5.312,0.0441578809722952
428,5.320,0.00233794877483387
429,5.327,0.0309601095334061
430,5.335,0.0428117892534515
431,5.343,0.0380751657615802
432,5.350,0.0538335477633826
433,5.358,0.0347959648825925
434,5.365,0.0349477797381012
435,5.373,0.0304439390246766
436,5.380,0.0477710745334021
437,5.388,0.0461820790457444
438,5.395,0.0217196453281104
439,5.403,0.0328122507706122
440,5.410,0.00937203708006999
441,5.418,0.0089368344942784
442,5.425,0.0448764712883697
443,5.433,0.0406762602859625
444,5.441,0.0722132662703017
445,5.448,0.0468804273810844
446,5.456,0.0218208552317828
447,5.463,0.0250494511589344
448,5.471,0.0413240036694663
449,5.478,0.03539310331426
450,5.486,0.0351299575647116
451,5.493,0.0355246761890342
452,5.501,0.0325389840306966
453,5.508,0.0484795438591093
454,5.516,0.0634383676218992
455,5.523,0.0455444566526079
456,5.531,0.016112616664656
457,5.538,0.0344923351715751
458,5.546,0.0278327235099271
459,5.554,0.012620874987956
460,5.561,0.0164870933082441
461,5.569,0.0519712855358093
462,5.576,0.00837005903371261
463,5.584,0.0485503907916801
464,5.591,0.0467083705448412
465,5.599,0.0285108298645326
466,5.606,0.0281363532209445
467,5.614,0.0442793328567022
468,5.621,0.0321948703582102
469,5.629,0.0413037616887318
470,5.636,0.0410608579199179
471,5.644,0.0638432072365891
472,5.651,0.0642784098223807
473,5.659,0.0549266147230452
474,5.667,0.0354538292564635
475,5.674,0.0272153430975251
476,5.682,0.0350591106321409
477,5.689,0.0215475884918672
478,5.697,0.0397451291721759
479,5.704,0.0231770679409938
480,5.712,0.0525380609963751
481,5.719,0.0377209310987266
482,5.727,0.0381966176459872
483,5.734,0.0380144398193768
484,5.742,0.0624363895755419
485,5.749,0.0395022254033619
486,5.757,0.0172360465954203
487,5.765,0.0275493357796442
488,5.772,0.0531554414087771
489,5.780,0.0278529654906616
490,5.787,0.0574163783533877
491,5.795,0.0395528303551982
492,5.802,0.0383787954725976
493,5.810,0.0376804471372576
494,5.817,0.0171651996628496
495,5.825,0.0154041473389487
496,5.832,0.0114164771342537
497,5.840,0.0508680975857794
498,5.847,0.037407180397342
499,5.855,0.0463338939012531
500,5.862,0.0411215838621213
501,5.870,0.034775722901858
502,5.878,0.0348769328055304
503,5.885,0.0200091979560458
504,5.893,0.0421033199277442
505,5.900,0.0230353740758524
506,5.908,0.0190173409000556
507,5.915,0.0407673491992677
508,5.923,0.0303123661499024
509,5.930,0.0211933538290136
510,5.938,0.0457063924984839
511,5.945,0.0392896846056498
512,5.953,0.0386520622125133
513,5.960,0.0484997858398438
514,5.968,0.0382877065592924
515,5.976,0.0383079485400269
516,5.983,0.019938351023475
517,5.991,0.0371541556381608
518,5.998,0.0476597436393624
519,6.006,0.0361521775918035
520,6.013,0.0351906835069151
521,6.021,0.0523153992082957
522,6.028,0.0375286322817489
523,6.036,0.0290877263154656
524,6.043,0.0333284212793418
525,6.051,0.0383484325014959
526,6.058,0.0376905681276249
527,6.066,0.0299884944581505
528,6.073,0.0309803515141406
529,6.081,0.0209403290698324
530,6.089,0.0564548842684993
531,6.096,0.0776178751264112
532,6.104,0.0391985956923446
533,6.111,0.0350489896417736
534,6.119,0.037447664358811
535,6.126,0.0532870142835513
536,6.134,0.0426194904364738
537,6.141,0.0778000529530216
538,6.149,0.0307576897260612
539,6.156,0.0432368708488758
540,6.164,0.0396439192685034
541,6.171,0.0300289784196195
542,6.179,0.0289662744310586
543,6.187,0.0425385225135358
544,6.194,0.0474978077934865
545,6.202,0.0468095804485137
546,6.209,0.0440060661167865
547,6.217,0.0292597831517088
548,6.224,0.0469411533232879
549,6.232,0.0303832130824731
550,6.239,0.047437081851283
551,6.247,0.0211427488771773
552,6.254,0.0429737250993274
553,6.262,0.0155154782329884
554,6.269,0.0186023802949985
555,6.277,0.0228835592203437
556,6.284,0.0217196453281104
557,6.292,0.0462832889494169
558,6.300,0.0250089671974654
559,6.307,0.0262842119837384
560,6.315,0.0108901856351569
561,6.322,0.0440769130493572
562,6.330,0.0371035506863246
563,6.337,0.0611611447892688
564,6.345,0.0489349884256354
565,6.352,0.0335612040577884
566,6.360,0.0424575545905978
567,6.367,0.0424575545905978
568,6.375,0.0451396170379181
569,6.382,0.0507567666917397
570,6.390,0.0347251179500217
571,6.397,0.0477002276008314
572,6.405,0.0246850955057135
573,6.413,0.0344417302197388
574,6.420,0.0435708635309949
575,6.428,0.0228633172396092
576,6.435,0.0395224673840964
577,6.443,0.0194221805147455
578,6.450,0.0180254838440655
579,6.458,0.0604425544731944
580,6.465,0.035231167468384
581,6.473,0.0218815811739863
582,6.480,0.0402815416616399
583,6.488,0.0352817724202203
584,6.495,0.0376500841661559
585,6.503,0.0474067188801812
586,6.511,0.0295026869205227
587,6.518,0.0310714404274459
588,6.526,0.0305755118994508
589,6.533,0.0345834240848803
590,6.541,0.0394111364900567
591,6.548,0.0365064122546571
592,6.556,0.0525583029771096
593,6.563,0.038601457260677
594,6.571,0.034036890605049
595,6.578,0.0638432072365891
596,6.586,0.0618797351053433
597,6.593,0.0411013418813869
598,6.601,0.0584790823419486
599,6.608,0.0824152245604859
600,6.616,0.102626842323877
601,6.624,0.0763527513305054
602,6.631,0.0746827879199098
603,6.639,0.0698854384858351
604,6.646,0.0789234828837859
605,6.654,0.0710392313877011
606,6.661,0.0388241190487565
607,6.669,0.0674260378265942
608,6.676,0.0364861702739226
609,6.684,0.0509693074894519
610,6.691,0.0282679260957187
611,6.699,0.072142419337731
612,6.706,0.0424676755809651
613,6.714,0.0551391555207573
614,6.722,0.0338547127784386
615,6.729,0.0383281905207614
616,6.737,0.0448764712883697
617,6.744,0.0483176080132334
618,6.752,0.0414859395153422
619,6.759,0.0626995353250903
620,6.767,0.0391479907405083
621,6.774,0.0558172618753628
622,6.782,0.0210111760024031
623,6.789,0.0610295719144946
624,6.797,0.0301504303040265
625,6.804,0.0424879175616996
626,6.812,0.0382877065592924
627,6.819,0.0217904922606811
628,6.827,0.0515158409692832
629,6.835,0.00531351994280426
630,6.842,0.0492689811077545
631,6.850,0.0397046452107069
632,6.857,0.0657661954063659
633,6.865,0.072597863904257
634,6.872,0.0439959451264193
635,6.880,0.0487831735701267
636,6.887,0.0572139585460428
637,6.895,0.0643998617067876
638,6.902,0.0623250586815021
639,6.910,0.0562221014900527
640,6.917,0.0825872813967291
641,6.925,0.0769498897621729
642,6.933,0.0737921407675921
643,6.940,0.0567888769506185
644,6.948,0.0727699207405002
645,6.955,0.0423259817158236
646,6.963,0.0524773350541716
647,6.970,0.0578819439102811
648,6.978,0.0672236180192493
649,6.985,0.0921921012552457
650,6.993,0.125611611447893
651,7.000,0.0691263642082916
652,7.008,0.0771826725406196
653,7.015,0.119437807323872
654,7.023,0.0549468567037797
655,7.030,0.0939126696176776
656,7.038,0.0890545942413994
657,7.046,0.0782150135580787
658,7.053,0.0673147069325545
659,7.061,0.0739338346327335
660,7.068,0.0601186827814425
661,7.076,0.0636812713907131
662,7.083,0.0864130157555481
663,7.091,0.0531048364569408
664,7.098,0.0477103485911986
665,7.106,0.0748346027754185
666,7.113,0.0969692087085859
667,7.121,0.0739338346327335
668,7.128,0.0992767945123181
669,7.136,0.0896719746538014
670,7.144,0.0515158409692832
671,7.151,0.0635699404966734
672,7.159,0.0636913923810804
673,7.166,0.103507368485827
674,7.174,0.0822330467338754
675,7.181,0.088012132233573
676,7.189,0.143758547176365
677,7.196,0.148910131273293
678,7.204,0.100390103452715
679,7.211,0.0596126332630802
680,7.219,0.0873745098404365
681,7.226,0.053934757667055
682,7.234,0.091260970141459
683,7.241,0.080077275785652
684,7.249,0.108658952582755
685,7.257,0.0825872813967291
686,7.264,0.0839536150963073
687,7.272,0.0630031650361076
688,7.279,0.0872834209271313
689,7.287,0.0600680778296062
690,7.294,0.0906537107194243
691,7.302,0.0976979200150276
692,7.309,0.058742228091497
693,7.317,0.0559690767308715
694,7.324,0.0542687503491742
695,7.332,0.0492588601173873
696,7.339,0.0504834999518241
