#"+EI TIC Scan ACN-PEEK.d "
#Point,X(Minutes),Y(Counts)
0,2.095,0.133987730645631
1,2.102,0.119668041719614
2,2.110,0.112287109422832
3,2.117,0.132814264450981
4,2.125,0.096011643505732
5,2.132,0.117567707298756
6,2.140,0.0848552112783367
7,2.148,0.0877973801431833
8,2.155,0.0834351471152459
9,2.163,0.0800848160957385
10,2.170,0.0822446741641519
11,2.178,0.0758501337411327
12,2.185,0.0629675157346511
13,2.193,0.0737157858073856
14,2.200,0.0752719040220299
15,2.208,0.0639709143648589
16,2.215,0.0615474515715604
17,2.223,0.0691069548110073
18,2.230,0.0761647587353504
19,2.238,0.0464454518491106
20,2.245,0.0624573130413251
21,2.253,0.0686817858999023
22,2.261,0.0584012016293833
23,2.268,0.0323043338657582
24,2.276,0.0379930938963431
25,2.283,0.0677294075390271
26,2.291,0.0597192252538088
27,2.298,0.0372447966127983
28,2.306,0.0615559549497825
29,2.313,0.0565984854462981
30,2.321,0.0528995159196846
31,2.328,0.0531971341574581
32,2.336,0.0514964585130381
33,2.343,0.0599148029529171
34,2.351,0.0451784484940177
35,2.359,0.0574233131338418
36,2.366,0.0481376241153085
37,2.374,0.0636647927488633
38,2.381,0.137873774493131
39,2.389,0.390662202279722
40,2.396,0.25982922495449
41,2.404,0.108817731108215
42,2.411,0.0584437185204938
43,2.419,0.0362669081172568
44,2.426,0.0618620765657781
45,2.434,0.048095107224198
46,2.441,0.045374026193126
47,2.449,0.0410032897869666
48,2.456,0.0774657756033317
49,2.464,0.0662073028372712
50,2.472,0.0488519078859649
51,2.479,0.0445321917491381
52,2.487,0.0379760871398989
53,2.494,0.0509862558197121
54,2.502,0.0347703135501672
55,2.509,0.0560967861311942
56,2.517,0.0508672085246027
57,2.524,0.0647617285395142
58,2.532,0.0442770904024751
59,2.539,0.061938606969777
60,2.547,0.0371172459394668
61,2.554,0.0440730093251447
62,2.562,0.045629127539789
63,2.570,0.0594386137724795
64,2.577,0.0438519214913701
65,2.585,0.0353400398910479
66,2.592,0.0528740057850183
67,2.600,0.0760627181966852
68,2.607,0.0487243572126334
69,2.615,0.0574063063773976
70,2.622,0.0474743606139847
71,2.630,0.0567260361196296
72,2.637,0.040867235735413
73,2.645,0.070782120320761
74,2.652,0.0416665532882904
75,2.660,0.0666324717483762
76,2.667,0.0426104282709435
77,2.675,0.0319556953586521
78,2.683,0.0543195800827753
79,2.690,0.0490644923415174
80,2.698,0.0589114043227093
81,2.705,0.0448468167433558
82,2.713,0.0757650999589117
83,2.720,0.0691579750803399
84,2.728,0.0647957420524026
85,2.735,0.0731375560882827
86,2.743,0.0634607116715329
87,2.750,0.0536903300943399
88,2.758,0.0855099714014384
89,2.765,0.0675678433528072
90,2.773,0.0657821339261662
91,2.780,0.0411733573514086
92,2.788,0.0603654819986884
93,2.796,0.0686902892781244
94,2.803,0.048350208570861
95,2.811,0.053188630779236
96,2.818,0.0403400262856428
97,2.826,0.0393111175207687
98,2.833,0.0538008740112272
99,2.841,0.0497617693557296
100,2.848,0.0521597220143619
101,2.856,0.0611477927951216
102,2.863,0.0461988538806697
103,2.871,0.076045711440241
104,2.878,0.0674317893012536
105,2.886,0.0729844952802849
106,2.894,0.063724316396418
107,2.901,0.03874989455811
108,2.909,0.0758671404975769
109,2.916,0.0608246644226818
110,2.924,0.0625678569582124
111,2.931,0.20039061118201
112,2.939,3.82055082843312
113,2.946,22.18703146386
114,2.954,50.9245212938196
115,2.961,77.1721369465661
116,2.969,100
117,2.976,45.7831747396606
118,2.984,1.48338031733247
119,2.991,0.266512880237061
120,2.999,0.195866813967853
121,3.007,0.14447239599348
122,3.014,0.128775159795484
123,3.022,0.148213882411204
124,3.029,0.122031980865358
125,3.037,0.12050137278538
126,3.044,0.0984351062990305
127,3.052,0.0833331065765807
128,3.059,0.10738066018868
129,3.067,0.104778626452717
130,3.074,0.0928909036982212
131,3.082,0.0853399038369964
132,3.089,0.0815559005281618
133,3.097,0.0747617013287039
134,3.105,0.0909011131942498
135,3.112,0.113069420219265
136,3.120,0.0976698022590415
137,3.127,0.0953823935172965
138,3.135,0.0603144617293558
139,3.142,0.0650168298861772
140,3.150,0.0721001439451865
141,3.157,0.101445302189654
142,3.165,0.0707481068078726
143,3.172,0.0725763331256241
144,3.180,0.0753399310478067
145,3.187,0.0629249988435406
146,3.195,0.0329761007453041
147,3.202,0.0710287182892019
148,3.210,0.0471087153504344
149,3.218,0.0604335090244652
150,3.225,0.060246434703579
151,3.233,0.0755185019904708
152,3.240,0.0555610733032019
153,3.248,0.0438944383824806
154,3.255,0.0676018568656956
155,3.263,0.0736307520251646
156,3.270,0.0623212589897715
157,3.278,0.0743790493087094
158,3.285,0.0597532387666972
159,3.293,0.0562583503174141
160,3.300,0.0746256472771503
161,3.308,0.0572277354347335
162,3.316,0.0659096845994977
163,3.323,0.0472787829148764
164,3.331,0.0414114519416274
165,3.338,0.0715049074696395
166,3.346,0.0321512730577604
167,3.353,0.05948113066359
168,3.361,0.0444981782362497
169,3.368,0.0302210062013437
170,3.376,0.0319641987368742
171,3.383,0.0421512458469501
172,3.391,0.0289965197373613
173,3.398,0.0294471987831326
174,3.406,0.0419981850389523
175,3.413,0.025493127909856
176,3.421,0.0211308948819187
177,3.429,0.0330441277710809
178,3.436,0.0432992019069336
179,3.444,0.018350290203292
180,3.451,0.0384267661856702
181,3.459,0.0425594080016109
182,3.466,0.0305696447084498
183,3.474,0.0568705935494053
184,3.481,0.0764198600820134
185,3.489,0.117831312023641
186,3.496,0.0630270393822058
187,3.504,0.0344471851777274
188,3.511,0.0447702863393569
189,3.519,0.0171768240086422
190,3.526,0.0124574490953766
191,3.534,0.0279421008378208
192,3.542,0.0449403539037989
193,3.549,0.0179846449397417
194,3.557,0.0132227531353656
195,3.564,0.0108588139896218
196,3.572,0.0303060399835647
197,3.579,0.0298553609377934
198,3.587,0.0518961172894768
199,3.594,0.0107822835856229
200,3.602,0.0390390094176614
201,3.609,0.00917514510164598
202,3.617,0.0239370096952117
203,3.624,0.0392600972514361
204,3.632,0.0347958236848335
205,3.640,0.0334267797910754
206,3.647,0.0526274078165774
207,3.655,0.0251955096720825
208,3.662,0.0352124892177164
209,3.670,0.0403910465549754
210,3.677,0.0304846109262288
211,3.685,0.0299488980982365
212,3.692,0
213,3.700,0.0206376989450369
214,3.707,0.032032225762651
215,3.715,0.0359012628537065
216,3.722,0.0210033442085872
217,3.730,0.0156462159286641
218,3.737,0.0216325941970226
219,3.745,0.020561168541038
220,3.753,0.0368451378363596
221,3.760,0.0189370233006169
222,3.768,0.0189795401917274
223,3.775,0.0405015904718627
224,3.783,0.0237839488872139
225,3.790,0.023197215789889
226,3.798,0.0358162290714855
227,3.805,0.0294897156742431
228,3.813,0.0165475740202067
229,3.820,0.0157652632237735
230,3.828,0.0228825907956713
231,3.835,0.0216921178445773
232,3.843,0.0117771788376086
233,3.851,0.0267771380213931
234,3.858,0.0308842697026675
235,3.866,0.0199234151743805
236,3.873,0.0216921178445773
237,3.881,0.013001665301591
238,3.888,0.0319046750893195
239,3.896,0.0176445098108577
240,3.903,0.00553569922258715
241,3.911,0.0304591007915625
242,3.918,0.0221342935121265
243,3.926,0.0327550129115295
244,3.933,0.0167261449628709
245,3.941,0.0174659388681936
246,3.948,0.0334948068168522
247,3.956,0.0308247460551128
248,3.964,0.0675168230834746
249,3.971,0.105552433870928
250,3.979,0.0439199485171469
251,3.986,0.038664860775889
252,3.994,0.0241921110418747
253,4.001,0.0377039790367917
254,4.009,0.0360033033923717
255,4.016,0.0243791853627609
256,4.024,0.0205696719192601
257,4.031,0.0278910805684882
258,4.039,0.0167091382064266
259,4.046,0.035433577051491
260,4.054,0.0284352967747027
261,4.062,0.0174659388681936
262,4.069,0.00454930734882354
263,4.077,0.021326472581027
264,4.084,0.0116921450553876
265,4.092,0.0220577631081276
266,4.099,0.0328400466937505
267,4.107,0.0269982258551677
268,4.114,0.0378400330883453
269,4.122,0.0269982258551677
270,4.129,0.0330101142581925
271,4.137,0.0272023069324981
272,4.144,0.0349488844928313
273,4.152,0.0197703543663827
274,4.159,0.0354250736732689
275,4.167,0.0299318913417923
276,4.175,0.0241580975289863
277,4.182,0.0277720332733788
278,4.190,0.044353620806474
279,4.197,0.0324658980519781
280,4.205,0.0464369484708885
281,4.212,0.0224574218845663
282,4.220,0.0217006212227994
283,4.227,0.0142091450091292
284,4.235,0.0270577495027224
285,4.242,0.0122703747744904
286,4.250,0.0261904049240682
287,4.257,0.0361563642003695
288,4.265,0.00261053711418472
289,4.273,0.0214625266325806
290,4.280,0.0247448306263112
291,4.288,0.00461733437460034
292,4.295,0.0137244524504695
293,4.303,0.0163094794299879
294,4.310,0.0274233947662727
295,4.318,0.0204846381370391
296,4.325,0.0338519487021804
297,4.333,0.019710830718828
298,4.340,0.0372618033692425
299,4.348,0.0270917630156108
300,4.355,0.0392090769821034
301,4.363,0.0278825771902661
302,4.370,0.0246172799529797
303,4.378,0.0400424080478693
304,4.386,0.0189200165441727
305,4.393,0.0272618305800528
306,4.401,0.0298723676942376
307,4.408,0.0768195188584521
308,4.416,0.129429919918585
309,4.423,0.118936751192514
310,4.431,0.0453315093020155
311,4.438,0.0497787761121738
312,4.446,0.0130441821927015
313,4.453,0.0183587935815141
314,4.461,0.0310373305106653
315,4.468,0.0377209857932359
316,4.476,0.0450679045771304
317,4.483,0.0281716920498176
318,4.491,0.0233332698414426
319,4.499,0.0246683002223123
320,4.506,0.0190135537046158
321,4.514,0.0164200233468752
322,4.521,0.0397702999447621
323,4.529,0.028630874473811
324,4.536,0.0106292227776251
325,4.544,0.00219387158130182
326,4.551,0.0129676517887026
327,4.559,0.037559421607016
328,4.566,0.00881800321631778
329,4.574,0.0155101618771105
330,4.581,0.0374913945812392
331,4.589,0.0163604996993205
332,4.597,0.0171938307650864
333,4.604,0.0141156078486861
334,4.612,0.0221513002685707
335,4.619,0.0223808914805674
336,4.627,0.0204166111112623
337,4.634,0.00602039178124685
338,4.642,0.0279591075942651
339,4.649,0.0220832732427939
340,4.657,0.0168366888797582
341,4.664,0.0243281650934283
342,4.672,0.0338519487021804
343,4.679,0.0207057259708137
344,4.687,0.0155866922811094
345,4.694,0.0124574490953766
346,4.702,0.0329590939888599
347,4.710,0.0268791785600583
348,4.717,5.95236475547005E-05
349,4.725,0.0456121207833448
350,4.732,0.0147108443242331
351,4.740,0.00954929374341838
352,4.747,0.0262414251934008
353,4.755,0.0276614893564915
354,4.762,0.0234863306494404
355,4.770,0.025493127909856
356,4.777,0.0347363000372788
357,4.785,0.0213774928503596
358,4.792,0.0289965197373613
359,4.800,0.0323468507568687
360,4.808,0.00247448306263112
361,4.815,0.0281121684022629
362,4.823,0.0243111583369841
363,4.830,0.0135033646166949
364,4.838,0.0209183104263662
365,4.845,0.0200424624694899
366,4.853,0.0315305264475471
367,4.860,0.0437668877091491
368,4.868,0.020050965847712
369,4.875,0.0341325601835097
370,4.883,0.0230951752512238
371,4.890,0.0232482360592216
372,4.898,0.046139330233115
373,4.905,0.0155186652553326
374,4.913,0.0188689962748401
375,4.921,0.0248468711649764
376,4.928,0.0321597764359825
377,4.936,0.019455729372165
378,4.943,0.0196938239623838
379,4.951,0.0253145569671919
380,4.958,0.0187159354668423
381,4.966,0.013171732866033
382,4.973,0.0133332970522529
383,4.981,0.0376699655239033
384,4.988,0.0180611753437406
385,4.996,0.0128401011153711
386,5.003,0.0190220570828379
387,5.011,0.0287839352818088
388,5.019,0.0504590463699418
389,5.026,0.0532566578050128
390,5.034,0.0264540096489533
391,5.041,0.0367516006759165
392,5.049,0.0229336110650039
393,5.056,0.0283502629924817
394,5.064,0.0540049550885576
395,5.071,0.0335373237079627
396,5.079,0.0132652700264761
397,5.086,0.0228825907956713
398,5.094,0.0363944587905883
399,5.101,0.0186223983063992
400,5.109,0.0230951752512238
401,5.116,0.0210628678561419
402,5.124,0.0243706819845388
403,5.132,0.0337839216764036
404,5.139,0.0134523443473623
405,5.147,0.0395151985980991
406,5.154,0.0247873475174217
407,5.162,0.0281546852933734
408,5.169,0.0350849385443849
409,5.177,0.010450651834961
410,5.184,0.0201019861170446
411,5.192,0.0367601040541386
412,5.199,0.0212244320423618
413,5.207,0.0267856413996152
414,5.214,0.0168111787450918
415,5.222,0.0181292023695174
416,5.229,0.0212584455552502
417,5.237,0.0228060603916724
418,5.245,0.020561168541038
419,5.252,0.0144812531122364
420,5.260,0.0312839284791062
421,5.267,0.0218876955436856
422,5.275,0.0333162358741881
423,5.282,0.018350290203292
424,5.290,0.00193026685641672
425,5.297,0.0123809186913777
426,5.305,0.0159693443011039
427,5.312,0.00802718904166247
428,5.320,0.0142856754131281
429,5.327,0.0134098274562518
430,5.335,0.020306067194375
431,5.343,0.0356376581288214
432,5.350,0.0269727157205014
433,5.358,0.0187839624926191
434,5.365,0.0363604452776999
435,5.373,0.0578824955578352
436,5.380,0.0296087629693525
437,5.388,0.0211053847472524
438,5.395,0.0314199825306598
439,5.403,0.0345237155817263
440,5.410,0.036283914873701
441,5.418,0.0361648675785916
442,5.425,0.0332397054701892
443,5.433,0.0332141953355229
444,5.440,0.0379675837616768
445,5.448,0.0323468507568687
446,5.456,0.0207057259708137
447,5.463,0.0290815535195823
448,5.471,0.0185968881717329
449,5.478,0.00785712147722047
450,5.486,0.0423043066549479
451,5.493,0.0352209925959385
452,5.501,0.0265390434311743
453,5.508,0.00238094590218802
454,5.516,0.0246087765747576
455,5.523,0.0296427764822409
456,5.531,0.0270152326116119
457,5.538,0.0259268001991831
458,5.546,0.0308162426768907
459,5.554,0.0256121752049654
460,5.561,0.0129081281411479
461,5.569,0.0371512594523552
462,5.576,0.0311733845622189
463,5.584,0.0320747426537615
464,5.591,0.0360543236617043
465,5.599,0.0276784961129357
466,5.606,0.0120833004536042
467,5.614,0.0284352967747027
468,5.621,0.0216410975752447
469,5.629,0.00990643562874659
470,5.636,0.0109523511500649
471,5.644,0.0161564186219901
472,5.651,0.0204251144894844
473,5.659,0.010535685617182
474,5.667,0.0153485976908906
475,5.674,0.0239200029387675
476,5.682,0.0329931075017483
477,5.689,0.0317261041466554
478,5.697,0.00957480387808468
479,5.704,0.01461730716379
480,5.712,0.0285373373133679
481,5.719,0.0172618577908632
482,5.727,0.0160373713268807
483,5.734,0.0388859486096636
484,5.742,0.0437753910873712
485,5.749,0.0213859962285817
486,5.757,0.0257227191218527
487,5.765,0.00323128372439803
488,5.772,0.022346877967679
489,5.780,0.00422617897638374
490,5.787,0.0416070296407357
491,5.795,0.0187329422232865
492,5.802,0.0132907801611424
493,5.810,0.0305526379520056
494,5.817,0.0421002255776175
495,5.825,0.0254761211534118
496,5.832,0.0274318981444948
497,5.840,0.00777208769499947
498,5.847,0.0324744014302002
499,5.855,0.0181292023695174
500,5.862,0.0365645263550303
501,5.870,0.020986337452143
502,5.878,0.0231461955205564
503,5.885,0.0335458270861848
504,5.893,0.0313604588831051
505,5.900,0.0270917630156108
506,5.908,0.0111394254709511
507,5.915,0.0240985738814316
508,5.923,0.0186138949281771
509,5.930,0.0201445030081551
510,5.938,0.0343791581519506
511,5.945,0.0362584047390347
512,5.953,0.0137839760980242
513,5.960,0.0149914558055624
514,5.968,0.0175084557593041
515,5.976,0.0216410975752447
516,5.983,0.0163945132122089
517,5.991,0.0358247324497076
518,5.998,0.0217771516267983
519,6.006,0.0145577835162353
520,6.013,0.0162754659170995
521,6.021,0.0142346551437955
522,6.028,0.0236053779445498
523,6.036,0.0300254285022354
524,6.043,0.0371257493176889
525,6.051,0.0301274690409006
526,6.058,0.0183417868250699
527,6.066,0.0292516210840243
528,6.073,0.0365815331114745
529,6.081,0.0128486044935932
530,6.089,0.0359352763665949
531,6.096,0.0403655364203091
532,6.104,0.0568620901711832
533,6.111,0.0302975366053426
534,6.119,0.0254251008840792
535,6.126,0.0403825431767533
536,6.134,0.0621341846688853
537,6.141,0.0788688330099782
538,6.149,0.0461903505024476
539,6.156,0.0379250668705663
540,6.164,0.0304676041697846
541,6.171,0.0453655228149039
542,6.179,0.0575763739418396
543,6.186,0.0529845497019056
544,6.194,0.0255696583138549
545,6.202,0.0236904117267708
546,6.209,0.0510202693326005
547,6.217,0.0289114859551403
548,6.224,0.0273723744969401
549,6.232,0.01818022263885
550,6.239,0.0561903232916373
551,6.247,0.0497022457081749
552,6.254,0.0391410499563266
553,6.262,0.0364369756816988
554,6.269,0.00794215525944147
555,6.277,0.0156802294415525
556,6.284,0.0382311884865619
557,6.292,0.0208332766441452
558,6.300,0.0518706071548105
559,6.307,0.0344471851777274
560,6.315,0.019625796936607
561,6.322,0.0459437525340067
562,6.330,0.013852003123801
563,6.337,0.036453982438143
564,6.345,0.0198979050397142
565,6.352,0.023962519829878
566,6.360,0.0270917630156108
567,6.367,0.0303230467400089
568,6.375,0.0470576950811018
569,6.382,0.0395832256238759
570,6.390,0.0207057259708137
571,6.397,0.0128230943589269
572,6.405,0.0306376717342266
573,6.413,0.0371597628305773
574,6.420,0.0495066680090666
575,6.428,0.0116071112731666
576,6.435,0.0255441481791886
577,6.443,0.0165985942895393
578,6.450,0.0314539960435482
579,6.458,0.0383077188905608
580,6.465,0.0283332562360375
581,6.473,0.0277805366516009
582,6.480,0.0283162494795933
583,6.488,0.0297533203991282
584,6.495,0.0294557021613547
585,6.503,0.0199744354437131
586,6.511,0.0276104690871589
587,6.518,0.0448383133651337
588,6.526,0.0391240431998824
589,6.533,0.0139030233931336
590,6.541,0.0148383949975646
591,6.548,0.0274404015227169
592,6.556,0.0458247052388973
593,6.563,0.0357226919110424
594,6.571,0.0202380401685982
595,6.578,0.0278655704338219
596,6.586,0.031436989287104
597,6.593,0.0489114315335196
598,6.601,0.0636137724795307
599,6.608,0.0889963564724994
600,6.616,0.0599573198440276
601,6.624,0.0636817995053075
602,6.631,0.0622192184511063
603,6.639,0.0588773908098209
604,6.646,0.0573042658387324
605,6.654,0.10264427851897
606,6.661,0.0478740193904234
607,6.669,0.0612073164426763
608,6.676,0.0514964585130381
609,6.684,0.0569556273316263
610,6.691,0.0594216070160353
611,6.699,0.0255356448009665
612,6.706,0.0602039178124685
613,6.714,0.034158070318176
614,6.722,0.0397107762972074
615,6.729,0.0388094182056647
616,6.737,0.0602804482164674
617,6.744,0.0400764215607577
618,6.752,0.0465900092788863
619,6.759,0.0353060263781595
620,6.767,0.0431546444771579
621,6.774,0.0380526175438978
622,6.782,0.0362584047390347
623,6.789,0.0484012288401936
624,6.797,0.0279165907031546
625,6.804,0.0450253876860199
626,6.812,0.0521597220143619
627,6.819,0.0443791309411403
628,6.827,0.0340475264012887
629,6.835,0.0529250260543509
630,6.842,0.0446767491789138
631,6.850,0.027108769772055
632,6.857,0.0444896748580276
633,6.865,0.0416580499100683
634,6.872,0.0453145025455713
635,6.880,0.0639454042301926
636,6.887,0.0406631546580826
637,6.895,0.0377464959279022
638,6.902,0.0574998435378407
639,6.910,0.0563518874778572
640,6.917,0.0895150625440475
641,6.925,0.0881460186502894
642,6.932,0.0585967793284916
643,6.940,0.0607991542880155
644,6.948,0.0705695358652085
645,6.955,0.152482578278699
646,6.963,0.143137365612611
647,6.970,0.0810882147259463
648,6.978,0.0805439985197319
649,6.985,0.099668096141235
650,6.993,0.131122092184783
651,7.000,0.12641122064974
652,7.008,0.0905524746871437
653,7.015,0.093214032070661
654,7.023,0.0783501269384301
655,7.030,0.0860201740947644
656,7.038,0.0882055422978441
657,7.046,0.0726868770425114
658,7.053,0.0763943499473471
659,7.061,0.0668025393128182
660,7.068,0.0741409547184906
661,7.076,0.0710117115327577
662,7.083,0.0499063267855053
663,7.091,0.0701443669541035
664,7.098,0.062108674534219
665,7.106,0.0447447762046906
666,7.113,0.0638688738261937
667,7.121,0.0711732757189776
668,7.128,0.08462562006634
669,7.136,0.0563944043689677
670,7.143,0.0708756574812041
671,7.151,0.0471937491326554
672,7.159,0.0599998367351381
673,7.166,0.0623807826373262
674,7.174,0.0564029077471898
675,7.181,0.0680270257768006
676,7.189,0.116547301912104
677,7.196,0.117142538387651
678,7.204,0.077576319520219
679,7.211,0.068741309547457
680,7.219,0.0708161338336494
681,7.226,0.0777038701935505
682,7.234,0.0640899616599683
683,7.241,0.0912497517013559
684,7.249,0.0751868702398089
685,7.257,0.0611222826604553
686,7.264,0.073494697973611
687,7.272,0.0634266981586445
688,7.279,0.0604335090244652
689,7.287,0.0640134312559694
690,7.294,0.0679504953728017
691,7.302,0.0572532455693998
692,7.309,0.0508246916334922
693,7.317,0.0431376377207137
694,7.324,0.0568195732800727
