#"+EI TIC Scan ACN-PET.d "
#Point,X(Minutes),Y(Counts)
0,2.095,0.118837292897121
1,2.102,0.107009397946028
2,2.110,0.119575333005301
3,2.117,0.0998151113262908
4,2.125,0.103255020004417
5,2.133,0.1109948145302
6,2.140,0.0911062380497669
7,2.148,0.0922293425622147
8,2.155,0.0731879077711709
9,2.163,0.0797725090841506
10,2.170,0.0842585093938708
11,2.178,0.0810175506579499
12,2.185,0.072212411280359
13,2.193,0.082987796859787
14,2.200,0.066205406573781
15,2.208,0.0590752973547551
16,2.215,0.071666903374313
17,2.223,0.0721739048399323
18,2.230,0.0664685339166974
19,2.238,0.0662695839744923
20,2.246,0.0465221977756241
21,2.253,0.0574708623369726
22,2.261,0.0723536015619239
23,2.268,0.045238649761398
24,2.276,0.0530362039478215
25,2.283,0.0777637564418868
26,2.291,0.0570280382720646
27,2.298,0.045630131905737
28,2.306,0.0484667730171766
29,2.313,0.0479020118909172
30,2.321,0.0391353789537531
31,2.328,0.0540181181787044
32,2.336,0.0530297862077503
33,2.344,0.0385513646072802
34,2.351,0.0440385323680967
35,2.359,0.0284755126956055
36,2.366,0.0466698057972601
37,2.374,0.037409006874619
38,2.381,0.0870694795450259
39,2.389,0.227842608005271
40,2.396,0.3354296025577
41,2.404,0.190356588249798
42,2.411,0.0632596638811322
43,2.419,0.0637730830868226
44,2.426,0.0454247642234608
45,2.434,0.0506616401215032
46,2.441,0.0439486840071008
47,2.449,0.0444877741730758
48,2.457,0.0632468284009899
49,2.464,0.031600952110246
50,2.472,0.0489545212625825
51,2.479,0.0432555680794188
52,2.487,0.0446803063752097
53,2.494,0.047157554042666
54,2.502,0.0378775018998115
55,2.509,0.0542684100414785
56,2.517,0.0527602411247629
57,2.524,0.0413559170183642
58,2.532,0.0444364322525067
59,2.539,0.0653967713248186
60,2.547,0.0360484459795393
61,2.554,0.041740981422632
62,2.562,0.0426073763322346
63,2.570,0.0302275557350241
64,2.577,0.0570408737522068
65,2.585,0.049763156511545
66,2.592,0.0725140450637022
67,2.600,0.0559370224599724
68,2.607,0.0548075002074534
69,2.615,0.0546278034854618
70,2.622,0.0513547560491853
71,2.630,0.0592678295568891
72,2.637,0.0448856740574859
73,2.645,0.0353617477919284
74,2.652,0.0557894144383364
75,2.660,0.0607182388129645
76,2.668,0.0368955876689286
77,2.675,0.0459510189092935
78,2.683,0.052670392763767
79,2.690,0.0429924407365024
80,2.698,0.0263127342916346
81,2.705,0.0531902297095286
82,2.713,0.0718080936558778
83,2.720,0.0573040010951232
84,2.728,0.0521441380779343
85,2.735,0.0630350429786426
86,2.743,0.0394049240367405
87,2.750,0.0661155582127852
88,2.758,0.0605000356505461
89,2.765,0.0787264174525564
90,2.773,0.0638950201481741
91,2.781,0.0534533570524449
92,2.788,0.0419463491049082
93,2.796,0.0653775181046052
94,2.803,0.0511172996665535
95,2.811,0.0695105427104132
96,2.818,0.0486143810388126
97,2.826,0.0361126233802506
98,2.833,0.0590432086543995
99,2.841,0.0490315341434361
100,2.848,0.0553016661929305
101,2.856,0.0454119287433186
102,2.863,0.0605128711306884
103,2.871,0.0680729689344799
104,2.879,0.061135391917588
105,2.886,0.064973200480124
106,2.894,0.0742660881031208
107,2.901,0.0976266619620353
108,2.909,0.0775006290989705
109,2.916,0.0784889610699245
110,2.924,0.0528372540056164
111,2.931,0.0521826445183611
112,2.939,0.170699050411926
113,2.946,3.09003916040814
114,2.954,23.5347192357447
115,2.961,67.5234435231493
116,2.969,100
117,2.976,82.311026916066
118,2.984,6.63364568260335
119,2.992,0.255156509748002
120,2.999,0.172746309494616
121,3.007,0.132840801732328
122,3.014,0.103877540791316
123,3.022,0.114248608746263
124,3.029,0.119190268601033
125,3.037,0.104897961462626
126,3.044,0.109640671375191
127,3.052,0.0704796214611538
128,3.059,0.0880963179564067
129,3.067,0.0922678490026415
130,3.074,0.0864597942382685
131,3.082,0.0831354048814229
132,3.090,0.0561488078823197
133,3.097,0.0758641053808322
134,3.105,0.0787970125933388
135,3.112,0.0874352907290803
136,3.120,0.11059691464579
137,3.127,0.0685799704000992
138,3.135,0.0714166115115389
139,3.142,0.0583565104667885
140,3.150,0.0517911623740222
141,3.157,0.0868833650829631
142,3.165,0.0659615324510781
143,3.172,0.0660963049925718
144,3.180,0.0530105329875369
145,3.187,0.0528693427059721
146,3.195,0.061526874061927
147,3.203,0.0428640859350798
148,3.210,0.065711240588304
149,3.218,0.0450332820791219
150,3.225,0.0347905689255978
151,3.233,0.0493010792264236
152,3.240,0.0535175344531562
153,3.248,0.047106212122097
154,3.255,0.0670846369635259
155,3.263,0.0564825303660185
156,3.270,0.0358751669976188
157,3.278,0.039084037033184
158,3.285,0.0545443728645371
159,3.293,0.060102135766136
160,3.300,0.0446546354149252
161,3.308,0.0665583822776932
162,3.316,0.045829081847942
163,3.323,0.0567584931890771
164,3.331,0.0400787867442092
165,3.338,0.0392765692353179
166,3.346,0.0351050381890832
167,3.353,0.01368262183165
168,3.361,0.0463489187937036
169,3.368,0.0463360833135613
170,3.376,0.0355286090337778
171,3.383,0.0485181149377457
172,3.391,0.0507386530023568
173,3.398,0.0281867143924046
174,3.406,0.0297911494101872
175,3.414,0.0472730733639464
176,3.421,0.0364784345643051
177,3.429,0.0364142571635938
178,3.436,0.0530554571680349
179,3.444,0.020870490711316
180,3.451,0.0328459936840453
181,3.459,0.0371266263114892
182,3.466,0.0152998923295748
183,3.474,0.0573168365752654
184,3.481,0.0736499850562922
185,3.489,0.0854907154875278
186,3.496,0.0647999214982034
187,3.504,0.0351178736692254
188,3.511,0.020966756812383
189,3.519,0.0169685047480687
190,3.527,0.0434481002815527
191,3.534,0.0314405086084677
192,3.542,0.032338992218426
193,3.549,0.00526254685832691
194,3.557,0.0286359561973838
195,3.564,0.0504626901792982
196,3.572,0.0431785551985652
197,3.579,0.016095692098395
198,3.587,0.0202672231446297
199,3.594,0.0276540419665008
200,3.602,0.0364591813440917
201,3.609,0.0302275557350241
202,3.617,0.00996675033046548
203,3.625,0.0317806488322376
204,3.632,0.0380828695820877
205,3.640,0.0322106374170034
206,3.647,0.0340011868968488
207,3.655,0.0278914983491326
208,3.662,0.0432812390397033
209,3.670,0.0310490264641288
210,3.677,0.0345017706223969
211,3.685,0.0212363018953704
212,3.692,0.0277695612877812
213,3.700,0.0209795922925252
214,3.707,0.0226482047110191
215,3.715,0.0423057425488915
216,3.722,0.0213774921769353
217,3.730,0.0159159953764033
218,3.738,0.036966182809711
219,3.745,0.0341937190989827
220,3.753,0.0254848458224587
221,3.760,0.0236237012018309
222,3.768,0.00556418064167004
223,3.775,0.0346365431638907
224,3.783,0.0179311657587383
225,3.790,0.0216662904801362
226,3.798,0.0211079470939478
227,3.805,0.0212427196354416
228,3.813,0.0510210335654865
229,3.820,0.0175204303941859
230,3.828,0.0303302395761622
231,3.836,0.0214224163574332
232,3.843,0.0366324603260122
233,3.851,0.0202479699244164
234,3.858,0.0414650185995734
235,3.866,0.0425367811914522
236,3.873,0.0469650218405321
237,3.881,0.0155309309721355
238,3.888,0.00625729656935212
239,3.896,0.0342001368390538
240,3.903,0.0237777269635381
241,3.911,0.0440321146280255
242,3.918,0.0359072556979745
243,3.926,0.0253308200607516
244,3.933,0.0337508950340747
245,3.941,0.0255361877430278
246,3.949,0.0225583563500233
247,3.956,0.0446738886351386
248,3.964,0.0736949092367902
249,3.971,0.0769807921532089
250,3.979,0.0638500959676762
251,3.986,0.0400980399644226
252,3.994,0.0291365399229319
253,4.001,0.0299387574318232
254,4.009,0.0117252111099552
255,4.016,0.0470163637611012
256,4.024,0.0273844968835133
257,4.031,0.024265475208944
258,4.039,0.0338407433950705
259,4.047,0.0320822826155808
260,4.054,0.0194585878956673
261,4.062,0.0177257980764621
262,4.069,0.0347969866656689
263,4.077,0.0388144919501965
264,4.084,0.0480624553926954
265,4.092,0.0473436685047288
266,4.099,0.0467660718983271
267,4.107,0.0225134321695254
268,4.114,0.0627141559750861
269,4.122,0.0504306014789425
270,4.129,0.0641453120109482
271,4.137,0.0380828695820877
272,4.144,0.0327497275829783
273,4.152,0.0236172834617598
274,4.160,0.0333465774095935
275,4.167,0.040412509227908
276,4.175,0.0228343191730819
277,4.182,0.0423635022095316
278,4.190,0.0391225434736108
279,4.197,0.0438716711262473
280,4.205,0.0410927896754478
281,4.212,0.0333979193301625
282,4.220,0.0361511298206774
283,4.227,0.0407205607513223
284,4.235,0.0241820445880193
285,4.242,0.0277053838870699
286,4.250,0.0327368921028361
287,4.257,0.0223786596280316
288,4.265,0.0248494895554168
289,4.273,0.0450332820791219
290,4.280,0.0420233619857617
291,4.288,0.0220834435847596
292,4.295,0.0286552094175971
293,4.303,0.0367287264270792
294,4.310,0.0423570844694605
295,4.318,0.0440128614078121
296,4.325,0.0161085275785373
297,4.333,0.0452579029816114
298,4.340,0.0230525223355003
299,4.348,0.0438203292056782
300,4.355,0.0324930179801331
301,4.363,0.021659872740065
302,4.371,0.0221347855053287
303,4.378,0.0314212553882543
304,4.386,0.0369405118494265
305,4.393,0.0382882372643638
306,4.401,0.0407911558921047
307,4.408,0.0341423771784136
308,4.416,0.109512316573769
309,4.423,0.180922510345237
310,4.431,0.0677520819309234
311,4.438,0.0493010792264236
312,4.446,0.0238162334039648
313,4.453,0.0434352648014104
314,4.461,0.0450204465989796
315,4.468,0.0568611770302152
316,4.476,0.0307602281609279
317,4.484,0.039873419061933
318,4.491,0.03480340440574
319,4.499,0.0557444902578385
320,4.506,0.0240087656060988
321,4.514,0.0235851947614041
322,4.521,0.0214480873177177
323,4.529,0.0413559170183642
324,4.536,0.0434609357616949
325,4.544,0.0431079600577828
326,4.551,0.0295151865871286
327,4.559,0.0281161192516222
328,4.566,0.0420554506861174
329,4.574,0.031158128045338
330,4.582,0.0188296493686965
331,4.589,0.0402584834662009
332,4.597,0.0272882307824464
333,4.604,0.0396552158995146
334,4.612,0.035637710614987
335,4.619,0.0549551082290894
336,4.627,0.0304521766375137
337,4.634,0.0466248816167622
338,4.642,0.0319218391138025
339,4.649,0.0457713221873019
340,4.657,0.0389428467516191
341,4.664,0.0360035217990414
342,4.672,0.0316137875903882
343,4.679,0.0338022369546437
344,4.687,0.0324224228393507
345,4.695,0.0391097079934685
346,4.702,0.0218909113826257
347,4.710,0.0300350235328902
348,4.717,0.0252281362196135
349,4.725,0.030028605792819
350,4.732,0.0260239359884337
351,4.740,0.0412596509172972
352,4.747,0.0437689872851092
353,4.755,0.021364656696793
354,4.762,0.0328203227237608
355,4.770,0.0312030522258359
356,4.777,0.040656383350611
357,4.785,0.0348675818064514
358,4.793,0.0398926722821464
359,4.800,0.0333594128897357
360,4.808,0.0185280155853534
361,4.815,0.028154625692049
362,4.823,0.0252730604001114
363,4.830,0.0368570812285018
364,4.838,0.0297013010491914
365,4.845,0.0370303602104223
366,4.853,0.0443337484113687
367,4.860,0.00392765692353179
368,4.868,0.0337508950340747
369,4.875,0.0311902167456936
370,4.883,0.0313699134676853
371,4.890,0.0285461078363879
372,4.898,0.0369790182898532
373,4.906,0.0421324635669709
374,4.913,0.0220770258446885
375,4.921,0.0454761061440299
376,4.928,0.0343926690411877
377,4.936,0.0299130864715387
378,4.943,0.0257030489848772
379,4.951,0.041150549336088
380,4.958,0.0324480937996352
381,4.966,0.038737479069343
382,4.973,0.0209475035921696
383,4.981,0.0233092319383455
384,4.988,0.0192596379534623
385,4.996,0.0235402705809062
386,5.003,0.0621044706683287
387,5.011,0.00651400617219734
388,5.019,0.029829655850614
389,5.026,0.045925347949009
390,5.034,0
391,5.041,0.0358623315174766
392,5.049,0.00841365723325193
393,5.056,0.0332567290485976
394,5.064,0.0469329331401765
395,5.071,0.0412339799570127
396,5.079,0.0213774921769353
397,5.086,0.0205431859676883
398,5.094,0.0247339702341365
399,5.101,0.0436149615234021
400,5.109,0.0330385258861792
401,5.117,0.0347392270050287
402,5.124,0.038589871047707
403,5.132,0.0200746909424958
404,5.139,0.0384807694664978
405,5.147,0.0233477383787723
406,5.154,0.0275513581253627
407,5.162,0.0194970943360941
408,5.169,0.0250741104579064
409,5.177,0.0354451784128531
410,5.184,0.0340396933372755
411,5.192,0.03588158473769
412,5.199,0.030073529973317
413,5.207,0.0271406227608104
414,5.214,0.042479021530812
415,5.222,0.0302596444353797
416,5.230,0.0277374725874255
417,5.237,0.0347969866656689
418,5.245,0.0439743549673854
419,5.252,0.0289760964211537
420,5.260,0.0248623250355591
421,5.267,0.0578430912610981
422,5.275,0.0290787802622918
423,5.282,0.0405729527296863
424,5.290,0.0169364160477131
425,5.297,0.0422030587077534
426,5.305,0.00524329363811352
427,5.312,0.0205303504875461
428,5.320,0.0300542767531036
429,5.328,0.0315431924496058
430,5.335,0.0473629217249422
431,5.343,0.00684131091582499
432,5.350,0.0195035120761652
433,5.358,0.0370752843909202
434,5.365,0.031305736066974
435,5.373,0.0466890590174735
436,5.380,0.0469136799199631
437,5.388,0.0371266263114892
438,5.395,0.0413815879786487
439,5.403,0.0506231336810764
440,5.410,0.0412789041375106
441,5.418,0.0161085275785373
442,5.425,0.049666890410478
443,5.433,0.0544096003230434
444,5.441,0.0798238510047197
445,5.448,0.0424918570109542
446,5.456,0.0491983953852855
447,5.463,0.0402713189463431
448,5.471,0.0251126168983332
449,5.478,0.0290980334825051
450,5.486,0.0549936146695162
451,5.493,0.0443658371117243
452,5.501,0.0380957050622299
453,5.508,0.0245991976926427
454,5.516,0.0558985160195456
455,5.523,0.0310490264641288
456,5.531,0.0301890492945973
457,5.539,0.0269416728186053
458,5.546,0.0468944266997497
459,5.554,0.028648791677526
460,5.561,0.0233349028986301
461,5.569,0.036427092643736
462,5.576,0.017276556271483
463,5.584,0.0362923201022423
464,5.591,0.0424340973503141
465,5.599,0.0395782030186611
466,5.606,0.0478570877104192
467,5.614,0.0343220739004053
468,5.621,0.0403290786069833
469,5.629,0.0621173061484709
470,5.636,0.0529720265471102
471,5.644,0.0393471643761004
472,5.652,0.0481715569739046
473,5.659,0.0315175214893213
474,5.667,0.0358687492575477
475,5.674,0.0392508982750334
476,5.682,0.0542619923014074
477,5.689,0.0668728515411786
478,5.697,0.0897713481149718
479,5.704,0.0595566278600899
480,5.712,0.0368249925281461
481,5.719,0.0330128549258947
482,5.727,0.0378004890189579
483,5.734,0.050257322497022
484,5.742,0.0444428499925779
485,5.750,0.0628232575562953
486,5.757,0.0486143810388126
487,5.765,0.0425046924910965
488,5.772,0.0459317656890801
489,5.780,0.0328203227237608
490,5.787,0.0347199737848154
491,5.795,0.0385256936469957
492,5.802,0.0436727211840422
493,5.810,0.0530041152474658
494,5.817,0.0430116939567158
495,5.825,0.026139455309714
496,5.832,0.0411056251555901
497,5.840,0.0427164779134438
498,5.847,0.0345852012433216
499,5.855,0.0373897536544056
500,5.863,0.0350216075681585
501,5.870,0.0119947561929427
502,5.878,0.048043202172482
503,5.885,0.0416832217619918
504,5.893,0.0492369018257123
505,5.900,0.0395910384988033
506,5.908,0.0449819401585528
507,5.915,0.0408424978126737
508,5.923,0.0476581377682142
509,5.930,0.0259533408476513
510,5.938,0.0297847316701161
511,5.945,0.0410350300148076
512,5.953,0.0296692123488357
513,5.960,0.0315624456698192
514,5.968,0.0372742343331252
515,5.976,0.0425175279712388
516,5.983,0.0815373876037115
517,5.991,0.062810422076153
518,5.998,0.0663851032957727
519,6.006,0.050796412662997
520,6.013,0.0278529919087059
521,6.021,0.0282380563129737
522,6.028,0.0427228956535149
523,6.036,0.0550706275503698
524,6.043,0.0424982747510254
525,6.051,0.0600315406253536
526,6.058,0.0478314167501347
527,6.066,0.05439034710283
528,6.074,0.0656342277074504
529,6.081,0.0526575572836248
530,6.089,0.107182676927948
531,6.096,0.139168693442462
532,6.104,0.0975881555216086
533,6.111,0.0677649174110657
534,6.119,0.0397578997406527
535,6.126,0.0585297894487091
536,6.134,0.0635677154045464
537,6.141,0.0995006420628054
538,6.149,0.0993466163010983
539,6.156,0.077917782203594
540,6.164,0.0687532493820198
541,6.171,0.0702100763781664
542,6.179,0.0628617639967221
543,6.187,0.0475618716671472
544,6.194,0.0610776322569478
545,6.202,0.0673670175266556
546,6.209,0.0714936243923924
547,6.217,0.0579008509217383
548,6.224,0.0638565137077473
549,6.232,0.0595245391597343
550,6.239,0.0468944266997497
551,6.247,0.0490315341434361
552,6.254,0.0525163670020599
553,6.262,0.0663145081549902
554,6.269,0.0442374823103017
555,6.277,0.0472281491834485
556,6.285,0.0660834695124295
557,6.292,0.0368891699288574
558,6.300,0.0514446044101811
559,6.307,0.0537678263159303
560,6.315,0.0514831108506079
561,6.322,0.0668728515411786
562,6.330,0.0466505525770467
563,6.337,0.0434673535017661
564,6.345,0.0596400584810146
565,6.352,0.0502829934573065
566,6.360,0.0427549843538706
567,6.367,0.032634208261698
568,6.375,0.0551925646117213
569,6.382,0.0573681784958345
570,6.390,0.0356954702756272
571,6.398,0.0584463588277844
572,6.405,0.0389685177119037
573,6.413,0.0478763409306326
574,6.420,0.0455659545050257
575,6.428,0.0681307285951201
576,6.435,0.0592870827771024
577,6.443,0.0558728450592611
578,6.450,0.0432748212996322
579,6.458,0.0612637467190106
580,6.465,0.039623127199159
581,6.473,0.067290004645802
582,6.480,0.0501931450963107
583,6.488,0.0383652501452174
584,6.496,0.0398541658417197
585,6.503,0.030471429857727
586,6.511,0.0549936146695162
587,6.518,0.0462141462522099
588,6.526,0.055275995232646
589,6.533,0.0538705101570684
590,6.541,0.0552695774925748
591,6.548,0.0630157897584292
592,6.556,0.104589909939212
593,6.563,0.128913144808796
594,6.571,0.114293532926761
595,6.578,0.101657002726705
596,6.586,0.145778965715727
597,6.593,0.140522836597471
598,6.601,0.0951301610743656
599,6.609,0.129965654180461
600,6.616,0.228786015795727
601,6.624,0.197653558710673
602,6.631,0.127263785610515
603,6.639,0.100764936856818
604,6.646,0.0920881522806498
605,6.654,0.0771027292145604
606,6.661,0.0698763538944676
607,6.669,0.0862929329964191
608,6.676,0.0691062250859319
609,6.684,0.0682334124362582
610,6.691,0.0919148732987293
611,6.699,0.0615974692027094
612,6.706,0.0700496328763881
613,6.714,0.0560204530808971
614,6.722,0.0668343451007518
615,6.729,0.0584206878674998
616,6.737,0.0504370192190137
617,6.744,0.0386476307083471
618,6.752,0.0611931515782282
619,6.759,0.0507835771828547
620,6.767,0.0432940745198455
621,6.774,0.046368172013917
622,6.782,0.0501289676955994
623,6.789,0.0522468219190724
624,6.797,0.0582024847050814
625,6.804,0.0590239554341861
626,6.812,0.049814498432114
627,6.820,0.0543454229223321
628,6.827,0.0636511460254711
629,6.835,0.0473565039848711
630,6.842,0.0623226738307471
631,6.850,0.0594090198384539
632,6.857,0.0599737809647134
633,6.865,0.048434684316821
634,6.872,0.0694848717501286
635,6.880,0.100623746575253
636,6.887,0.0770898937344181
637,6.895,0.0802923460299122
638,6.902,0.0843547754949377
639,6.910,0.094116158143127
640,6.917,0.0554107677741397
641,6.925,0.0755303828971334
642,6.933,0.0869347070035321
643,6.940,0.0652812520035382
644,6.948,0.101162836741228
645,6.955,0.0985508165322781
646,6.963,0.118638342954916
647,6.970,0.0729632868686813
648,6.978,0.119434142723736
649,6.985,0.225609234460517
650,6.993,0.202319255742385
651,7.000,0.154455750291895
652,7.008,0.140375228575835
653,7.015,0.0868705296028208
654,7.023,0.102106244531684
655,7.031,0.183200808070488
656,7.038,0.204802921149913
657,7.046,0.19138984440125
658,7.053,0.112304033504711
659,7.061,0.109358290812062
660,7.068,0.125287121668607
661,7.076,0.0879358744546285
662,7.083,0.109615000414907
663,7.091,0.0821470729104689
664,7.098,0.087422455248938
665,7.106,0.0835974821665443
666,7.113,0.151490754379033
667,7.121,0.178618541659701
668,7.128,0.160828566182527
669,7.136,0.142229955456391
670,7.144,0.105007063043835
671,7.151,0.0983261956297886
672,7.159,0.102908462040576
673,7.166,0.147222957231731
674,7.174,0.191377008921108
675,7.181,0.263063165515634
676,7.189,0.350639646526279
677,7.196,0.261298286996073
678,7.204,0.203384600594193
679,7.211,0.152235212227284
680,7.219,0.136960990857993
681,7.226,0.170089365105168
682,7.234,0.326130297194633
683,7.242,0.378537562615483
684,7.249,0.261554996598919
685,7.257,0.188168138885543
686,7.264,0.190523449491648
687,7.272,0.154442914811753
688,7.279,0.177174550143696
689,7.287,0.206336761026913
690,7.294,0.165205464911038
691,7.302,0.161438251489285
692,7.309,0.185177472012396
693,7.317,0.140805217160601
694,7.324,0.117823289965883
695,7.332,0.14017627863363
696,7.339,0.121930643611406
697,7.347,0.125409058729959
