#"+EI TIC Scan ACN-PEEK-2Day.d "
#Point,X(Minutes),Y(Counts)
0,2.095,0.140514914935948
1,2.102,0.127960181797599
2,2.110,0.144328009688742
3,2.117,0.105611649273443
4,2.125,0.0993303272117868
5,2.132,0.111347113372563
6,2.140,0.0937847267518105
7,2.147,0.0922974615785215
8,2.155,0.107233401191125
9,2.163,0.0975819995346759
10,2.170,0.111315469432706
11,2.178,0.099543923805823
12,2.185,0.0716814347615483
13,2.193,0.0794500219964937
14,2.200,0.0757635030031286
15,2.208,0.0826618818920007
16,2.215,0.0685328627457557
17,2.223,0.0833422265989307
18,2.230,0.0642213759402107
19,2.238,0.0695217358662936
20,2.245,0.0497205405006435
21,2.253,0.056444877720301
22,2.260,0.0504008852075736
23,2.268,0.0619351012855271
24,2.276,0.0703840332274026
25,2.283,0.0663336089256795
26,2.291,0.0713570843780119
27,2.298,0.0783899500112771
28,2.306,0.0600997527738089
29,2.313,0.0452745669507053
30,2.321,0.0756052833038425
31,2.328,0.0589605709389493
32,2.336,0.0429724703260932
33,2.343,0.057647347434875
34,2.351,0.0362481331064357
35,2.358,0.0596250936759507
36,2.366,0.0541823360205103
37,2.374,0.046208063176493
38,2.381,0.151764335555186
39,2.389,0.35904796358985
40,2.396,0.278901774916498
41,2.404,0.099623033655466
42,2.411,0.0675756335650751
43,2.419,0.0489057090493203
44,2.426,0.0378303300992963
45,2.434,0.0515400670424332
46,2.441,0.0548626807274404
47,2.449,0.0495702317863218
48,2.456,0.0536127451030805
49,2.464,0.0609462281649893
50,2.471,0.0565398095398726
51,2.479,0.0601946845933805
52,2.487,0.0460893984020285
53,2.494,0.0521333909147559
54,2.502,0.0587944402546989
55,2.509,0.0608671183153463
56,2.517,0.0784453269060272
57,2.524,0.062061677044956
58,2.532,0.0502980424030376
59,2.539,0.0666184043843944
60,2.547,0.0525447621328996
61,2.554,0.0516587318168977
62,2.562,0.0396182127012288
63,2.569,0.0627736656917433
64,2.577,0.0793867341167793
65,2.584,0.0540874042009387
66,2.592,0.0579321428935899
67,2.600,0.0654475786096776
68,2.607,0.0563895008255508
69,2.615,0.0295396178567069
70,2.622,0.0388587581446557
71,2.630,0.0632720577444943
72,2.637,0.0347371349782539
73,2.645,0.042418701378592
74,2.652,0.0588656391193776
75,2.660,0.0484864268462123
76,2.667,0.0414931161377685
77,2.675,0.0614525312027047
78,2.682,0.0339064815570021
79,2.690,0.0599336220895585
80,2.698,0.0591583455630568
81,2.705,0.0488107772297487
82,2.713,0.085256684960292
83,2.720,0.0810717739141758
84,2.728,0.0757002151234141
85,2.735,0.0530906200954365
86,2.743,0.0457966919583493
87,2.750,0.0708586923252608
88,2.758,0.0697590654152227
89,2.765,0.0526476049374356
90,2.773,0.0787143003948135
91,2.780,0.0663494308956081
92,2.788,0.0366753262945081
93,2.795,0.0665234725648228
94,2.803,0.0970598745270319
95,2.811,0.0775830295449182
96,2.818,0.0594985179165219
97,2.826,0.0600522868640231
98,2.833,0.0383920100317618
99,2.841,0.0710169120245468
100,2.848,0.0387400933701911
101,2.856,0.0629951732707437
102,2.863,0.0461605972667072
103,2.871,0.0634619213836376
104,2.878,0.0524419193283637
105,2.886,0.0636043191129951
106,2.893,0.0608354743754891
107,2.901,0.0628290425864934
108,2.909,0.0553373398252986
109,2.916,0.0741417510854465
110,2.924,0.0899874539689451
111,2.931,0.331952840087113
112,2.939,5.07199352311839
113,2.946,22.2933692259995
114,2.954,45.4320667503596
115,2.961,70.7025215710805
116,2.969,100
117,2.976,51.2609042050129
118,2.984,1.79284278950507
119,2.991,0.213746902750499
120,2.999,0.179041411712102
121,3.006,0.139352000146195
122,3.014,0.149145799532002
123,3.022,0.121504818066728
124,3.029,0.118783439239008
125,3.037,0.143884994530741
126,3.044,0.127287748075633
127,3.052,0.10667172125866
128,3.059,0.12601407949638
129,3.067,0.0876141584796543
130,3.074,0.0958653157974221
131,3.082,0.10735206596559
132,3.089,0.0889511149386214
133,3.097,0.0787380333497064
134,3.104,0.0976690203692832
135,3.112,0.114060581215319
136,3.120,0.119345119171473
137,3.127,0.0998603632043951
138,3.135,0.0881362834872982
139,3.142,0.0762144291460938
140,3.150,0.0792285144174932
141,3.157,0.0992433063771795
142,3.165,0.0946312021429909
143,3.172,0.0911424577737333
144,3.180,0.0769105958229525
145,3.187,0.0816413648316056
146,3.195,0.0571805993219811
147,3.202,0.0479010139588539
148,3.210,0.0563024799909435
149,3.217,0.054799392847726
150,3.225,0.0877090902992259
151,3.233,0.0820052701399635
152,3.240,0.126757712083025
153,3.248,0.15835418603045
154,3.255,0.268704515297511
155,3.263,0.348067516459398
156,3.270,0.185631262187367
157,3.278,0.0800987227635665
158,3.285,0.0802332095079597
159,3.293,0.0661121013466791
160,3.300,0.0716656127916197
161,3.308,0.0738648666116959
162,3.315,0.0819578042301777
163,3.323,0.0599969099692729
164,3.330,0.0607247205859888
165,3.338,0.0587548853298774
166,3.346,0.0442382279203816
167,3.353,0.0318970913760692
168,3.361,0.0485101598011052
169,3.368,0.0450609703566691
170,3.376,0.0353462808205052
171,3.383,0.0588260841945561
172,3.391,0.0413665403783397
173,3.398,0.0321423319099625
174,3.406,0.0338431936772877
175,3.413,0.0370946084976161
176,3.421,0.0458599798380637
177,3.428,0.0169295078236081
178,3.436,0.0342150099706099
179,3.444,0.0496414306510005
180,3.451,0.0326881898724994
181,3.459,0.0516033549221476
182,3.466,0.0396261236861931
183,3.474,0.0830969860650373
184,3.481,0.0956991851131718
185,3.489,0.115555757373572
186,3.496,0.0679949157681831
187,3.504,0.024919602637554
188,3.511,0.0407811274909813
189,3.519,0.0283846140519187
190,3.526,0.0396973225508718
191,3.534,0.0398871861900151
192,3.541,0.0478851919889253
193,3.549,0.0322689076693914
194,3.557,0.0554322716448702
195,3.564,0.0282896822323471
196,3.572,0.0432097998750223
197,3.579,0.038945778979263
198,3.587,0.0309556841653171
199,3.594,0.0450688813416334
200,3.602,0.030219962563637
201,3.609,0.0335109323087869
202,3.617,0.0395944797463358
203,3.624,0.0261695382619139
204,3.632,0.0445784002738467
205,3.639,0.0280998185932038
206,3.647,0.0648226107974977
207,3.655,0.0481066995679257
208,3.662,0.0616977717365981
209,3.670,0.0562550140811577
210,3.677,0.0340014133765737
211,3.685,0.0469754287180304
212,3.692,0.0287643413302052
213,3.700,0.0374268698661169
214,3.707,0.0125784660932416
215,3.715,0.0351168622565404
216,3.722,0.0474817317557458
217,3.730,0.0463583718908148
218,3.737,0.0324508603235704
219,3.745,0.0197458184709
220,3.752,0.0273008091118092
221,3.760,0.0401007827840512
222,3.768,0.0236142901184441
223,3.775,0.0247455609683394
224,3.783,0.042576921077878
225,3.790,0.0313591443984966
226,3.798,0.0487474893500343
227,3.805,0.0519514382605769
228,3.813,0.0242867238404098
229,3.820,0.0211618847795102
230,3.828,0.0096593126414138
231,3.835,0.0231554529905145
232,3.843,0.039467903986907
233,3.850,0.0361294683319712
234,3.858,0.0294051311123138
235,3.866,0.0315173640977826
236,3.873,0.0377591312346176
237,3.881,0.0379727278286538
238,3.888,0.0344206955796818
239,3.896,0.00624176713683496
240,3.903,0.0299747220297436
241,3.911,0.0313907883383538
242,3.918,0.0194452010422564
243,3.926,0.0289304720144556
244,3.933,0.0250778223368401
245,3.941,0.0254179946903051
246,3.948,0.0441670290557029
247,3.956,0.0485813586657839
248,3.963,0.0777016943193828
249,3.971,0.109179503492344
250,3.979,0.0656769971736424
251,3.986,0.0382417013174401
252,3.994,0.0285982106459549
253,4.001,0.0244053886148743
254,4.009,0.0485101598011052
255,4.016,0.0335979531433943
256,4.024,0.019223693463256
257,4.031,0.0471415594022808
258,4.039,0.0398950971749794
259,4.046,0.0363193319711145
260,4.054,0.0351089512715761
261,4.061,0.0467697431089586
262,4.069,0.0308765743156741
263,4.077,0.0573941959160173
264,4.084,0.0718238324909057
265,4.092,0.179152165501603
266,4.099,0.219593120639119
267,4.107,0.108847242123843
268,4.114,0.0524181863734708
269,4.122,0.0301408527139939
270,4.129,0.0299984549846365
271,4.137,0.0268340609989153
272,4.144,0.0292231784581348
273,4.152,0.0360503584823282
274,4.159,0.0319841122106765
275,4.167,0.029436775052171
276,4.174,0.0300538318793866
277,4.182,0.038004371768511
278,4.190,0
279,4.197,0.0165972464551074
280,4.205,0.0142714168756024
281,4.212,0.00724646222730143
282,4.220,0.0341833660307527
283,4.227,0.038265434272333
284,4.235,0.0245952522540176
285,4.242,0.0415405820475544
286,4.250,0.00465957014397439
287,4.257,0.0337561728426803
288,4.265,0.0381705024527613
289,4.272,0.025623680299377
290,4.280,0.0298797902101719
291,4.287,0.0226491499527991
292,4.295,0.0236301120883727
293,4.303,0.02899375989417
294,4.310,0.035132684226469
295,4.318,0.0386688945055124
296,4.325,0.0280602636683823
297,4.333,0.0365250175801863
298,4.340,0.0107431175815233
299,4.348,0.0129502823865638
300,4.355,0.0230921651108001
301,4.363,0.0479089249438182
302,4.370,0.0238437086824088
303,4.378,0.02570279014902
304,4.385,0.0184563279217186
305,4.393,0.0275460496457026
306,4.401,0.0206160268169733
307,4.408,0.0655583323991779
308,4.416,0.149422684005753
309,4.423,0.134320613708898
310,4.431,0.0757318590632713
311,4.438,0.0480592336581399
312,4.446,0.0360661804522568
313,4.453,0.0322293527445699
314,4.461,0.0214466802382251
315,4.468,0.0326486349476779
316,4.476,0.0475608416053888
317,4.483,0.0410975668895534
318,4.491,0.0424740782733421
319,4.498,0.015410598710462
320,4.506,0.0375930005503672
321,4.514,0.0566742962842657
322,4.521,0.0286773204955979
323,4.529,0.0461764192366358
324,4.536,0.0458283358982065
325,4.544,0.0484231389664979
326,4.551,0.0269131708485584
327,4.559,0.0457966919583493
328,4.566,0.0360266255274353
329,4.574,0.0330758281357503
330,4.581,0.0395549248215143
331,4.589,0.0298244133154218
332,4.596,0.0353304588505766
333,4.604,0.0403064683931231
334,4.612,0.0196825305911855
335,4.619,0.040931436205303
336,4.627,0.0379094399489393
337,4.634,0.032205619789677
338,4.642,0.0428538055516286
339,4.649,0.0424107903936277
340,4.657,0.036517106595222
341,4.664,0.0324508603235704
342,4.672,0.0258530988633418
343,4.679,0.0343099417901815
344,4.687,0.0303307163531372
345,4.694,0.0278071121495246
346,4.702,0.0409868131000532
347,4.709,0.0327593887371782
348,4.717,0.0302436955185299
349,4.725,0.0114946611531321
350,4.732,0.0156953941691769
351,4.740,0.027791290179596
352,4.747,0.0351643281663262
353,4.755,0.0139707994469589
354,4.762,0.0294051311123138
355,4.770,0.0183772180720756
356,4.777,0.0224671972986201
357,4.785,0.036437996745579
358,4.792,0.0111070228898812
359,4.800,0.0306076008268878
360,4.807,0.018701568455612
361,4.815,0.0343257637601101
362,4.823,0.041975686220591
363,4.830,0.0180370457186105
364,4.838,0.0506303037715383
365,4.845,0.0553136068704056
366,4.853,0.0295079739168497
367,4.860,0.0296029057364213
368,4.868,0.032363839488963
369,4.875,0.0201571896890437
370,4.883,0.0236696670131942
371,4.890,0.0225304851783346
372,4.898,0.0218817844112617
373,4.905,0.01384422368753
374,4.913,0.0145087464245315
375,4.920,0.0153947767405334
376,4.928,0.0153631328006762
377,4.936,0.0275460496457026
378,4.943,0.0295633508115998
379,4.951,0.033748261857716
380,4.958,0.037822419114332
381,4.966,0.00961975771659229
382,4.973,0.0134328524693863
383,4.981,0.0149754945374253
384,4.988,0.0268498829688439
385,4.996,0.0413111634835896
386,5.003,0.0291282466385632
387,5.011,0.0301883186237797
388,5.018,0.0431702449502007
389,5.026,0.0534387034338659
390,5.033,0.0307895534810668
391,5.041,0.0236459340583013
392,5.049,0.0373082050916523
393,5.056,0.0220162711556549
394,5.064,0.0488582431395345
395,5.071,0.0420073301604482
396,5.079,0.0257344340888772
397,5.086,0.0153235778758547
398,5.094,0.0363272429560788
399,5.101,0.0450214154318476
400,5.109,0.0410896559045891
401,5.116,0.0252993299158406
402,5.124,0.00271346784275588
403,5.131,0.0397843433854791
404,5.139,0.0252043980962689
405,5.147,0.0276726254051314
406,5.154,0.0280127977585965
407,5.162,0.0269052598635941
408,5.169,0.0177759832147885
409,5.177,0.0232582957950504
410,5.184,0.0210985968997957
411,5.192,0.0243421007351599
412,5.199,0.0364459077305433
413,5.207,0.020085990824365
414,5.214,0.028392525036883
415,5.222,0.0172301252522516
416,5.229,0.0340014133765737
417,5.237,0.0224909302535131
418,5.244,0.0188993430797195
419,5.252,0.0277200913149172
420,5.260,0.0224830192685487
421,5.267,0.00780814215976693
422,5.275,0.0312879455338178
423,5.282,0.0228785685167639
424,5.290,0.0236854889831228
425,5.297,0.0391435536033706
426,5.305,0.03557569938447
427,5.312,0.00980171037077125
428,5.320,0.0238832636072304
429,5.327,0.00571964212919097
430,5.335,0.028131462533061
431,5.342,0.0312563015939606
432,5.350,0.0529007564562933
433,5.358,0.0428617165365929
434,5.365,0.00417700006115191
435,5.373,0.030117119759101
436,5.380,0.0208533563659024
437,5.388,0.0326090800228564
438,5.395,0.0211777067494388
439,5.403,0.0364142637906861
440,5.410,0.0266283753898435
441,5.418,0.0341517220908955
442,5.425,0.0400295839193725
443,5.433,0.0255050155249124
444,5.440,0.0387400933701911
445,5.448,0.0362955990162216
446,5.455,0.0382575232873687
447,5.463,0.0343257637601101
448,5.471,0.0198803052152931
449,5.478,0.0362955990162216
450,5.486,0.014105286191352
451,5.493,0.0267786841041652
452,5.501,0.046833030988673
453,5.508,0.0248879586976968
454,5.516,0.0266916632695579
455,5.523,0.0120879850254548
456,5.531,0.00508676333204674
457,5.538,0.00592532773826285
458,5.546,0.0205527389372588
459,5.553,0.0450135044468833
460,5.561,0.0241522370960167
461,5.569,0.0356943641589345
462,5.576,0.0331865819252505
463,5.584,0.027530227675774
464,5.591,0.0276330704803099
465,5.599,0.0210748639449028
466,5.606,0.0369522107682587
467,5.614,0.0120563410855976
468,5.621,0.0338431936772877
469,5.629,0.0153393998457833
470,5.636,0.0298797902101719
471,5.644,0.0274194738862737
472,5.651,0.0170639945680013
473,5.659,0.0376009115353315
474,5.666,0.0201413677191151
475,5.674,0.0247692939232323
476,5.682,0.0198011953656501
477,5.689,0.0205369169673302
478,5.697,0.038423653971619
479,5.704,0.0110041800853453
480,5.712,0.0337403508727517
481,5.719,0.0263752238709858
482,5.727,0.0136227161085295
483,5.734,0.0180370457186105
484,5.742,0.038083481618154
485,5.749,0.0267153962244508
486,5.757,0.0260825174273066
487,5.764,0.0238674416373017
488,5.772,0.0222456897196197
489,5.780,0.0117082577471682
490,5.787,0.0256157693144127
491,5.795,0.0235510022387296
492,5.802,0.0467855650788872
493,5.810,0.0356073433243272
494,5.817,0.0262565590965212
495,5.825,0.0246189852089105
496,5.832,0.0251964871113046
497,5.840,0.00670851524972883
498,5.847,0.0267549511492723
499,5.855,0.000973051150609253
500,5.862,0.0337007959479302
501,5.870,0.0457254930936706
502,5.877,0.0230051442761927
503,5.885,0.0191129396737557
504,5.893,0.0158219699286057
505,5.900,0.0166684453197861
506,5.908,0.0113522634237746
507,5.915,0.029594994751457
508,5.923,0.0206555817417948
509,5.930,0.0356152543092915
510,5.938,0.00307737315111382
511,5.945,0.00651865161058556
512,5.953,0.0319129133459978
513,5.960,0.0193107142978633
514,5.968,0.0338985705720378
515,5.975,0.0219450722909762
516,5.983,0.017839271094503
517,5.990,0.0298956121801005
518,5.998,0.0123411365443125
519,6.006,0.0350140194520045
520,6.013,0.0335979531433943
521,6.021,0.0185275267863973
522,6.028,0.0395074589117285
523,6.036,0.0256790571941271
524,6.043,0.0208138014410808
525,6.051,0.0456147393041703
526,6.058,0.0383366331370117
527,6.066,0.0171035494928228
528,6.073,0.0146432331689246
529,6.081,0.0240810382313379
530,6.088,0.0206714037117234
531,6.096,0.0160988544023563
532,6.104,0.0218264075165116
533,6.111,0.0117873675968113
534,6.119,0.0223168885842984
535,6.126,0.0447524419430613
536,6.134,0.0229260344265497
537,6.141,0.0158140589436414
538,6.149,0.0386293395806909
539,6.156,0.0204498961327229
540,6.164,0.0364063528057218
541,6.171,0.0401561596788014
542,6.179,0.0181398885231465
543,6.186,0.0330520951808574
544,6.194,0.0197062635460784
545,6.201,0.025884742803199
546,6.209,0.0140103543717804
547,6.217,0.0160751214474634
548,6.224,0.0314461652331039
549,6.232,0.0201809226439366
550,6.239,0.0335663092035371
551,6.247,0.0416671578069832
552,6.254,0.0347450459632182
553,6.262,0.016533958575393
554,6.269,0.0413507184084111
555,6.277,0.0204736290876158
556,6.284,0.0237408658778729
557,6.292,0.0171114604777871
558,6.299,0.0280048867736321
559,6.307,0.0218343185014759
560,6.315,0.0357260080987917
561,6.322,0.0276330704803099
562,6.330,0.01117822175456
563,6.337,0.0253151518857692
564,6.345,0.0124439793488484
565,6.352,0.0516745537868263
566,6.360,0.0139707994469589
567,6.367,0.00199356821100432
568,6.375,0.03756135661051
569,6.382,0.0326328129777493
570,6.390,0.00562471030961934
571,6.397,0.0254971045399481
572,6.405,0.0405358869570879
573,6.412,0.0311771917443176
574,6.420,0.0313828773533895
575,6.428,0.0190733847489342
576,6.435,0.0173329680567876
577,6.443,0.0199356821100432
578,6.450,0.0215811669826182
579,6.458,0.0291361576235275
580,6.465,0.0301566746839225
581,6.473,0.025884742803199
582,6.480,0.0426085650177352
583,6.488,0.04873957836507
584,6.495,0.0247218280134465
585,6.503,0.030117119759101
586,6.510,0.0342941198202529
587,6.518,0.0274669397960596
588,6.526,0.042576921077878
589,6.533,0.0377195763097961
590,6.541,0.0347766899030754
591,6.548,0.0262170041716997
592,6.556,0.0543880216295822
593,6.563,0.0325537031281063
594,6.571,0.0439059665518809
595,6.578,0.022253600704584
596,6.586,0.0346817580835038
597,6.593,0.0379252619188679
598,6.601,0.0128078846572063
599,6.608,0.0548231258026189
600,6.616,0.0294446860371353
601,6.623,0.00423237695590203
602,6.631,0.0307658205261739
603,6.639,0.0277200913149172
604,6.646,0.0186303695909333
605,6.654,0.0348399777827898
606,6.661,0.0280998185932038
607,6.669,0.0324113053987488
608,6.676,0.032102776985141
609,6.684,0.0393017733026566
610,6.691,0.0388587581446557
611,6.699,0.0296820155860644
612,6.706,0.0333922675343224
613,6.714,0.0223406215391913
614,6.721,0.0202125665837938
615,6.729,0.0325299701732134
616,6.736,0.0395707467914429
617,6.744,0.0275064947208811
618,6.752,0.0167791991092864
619,6.759,0.0218976063811903
620,6.767,0.0335742201885014
621,6.774,0.0359633376477208
622,6.782,0.0501951995985017
623,6.789,0.0287959852700624
624,6.797,0.0410738339346605
625,6.804,0.0344918944443605
626,6.812,0.0186778355007191
627,6.819,0.0321106879701053
628,6.827,0.0324350383536418
629,6.834,0.0281710174578825
630,6.842,0.00621803418194205
631,6.850,0.0303940042328516
632,6.857,0.0368889228885443
633,6.865,0.0356468982491487
634,6.872,0.0260825174273066
635,6.880,0.0363984418207575
636,6.887,0.0189309870195768
637,6.895,0.0373477600164738
638,6.902,0.0405833528668737
639,6.910,0.0443648036798105
640,6.917,0.0562312811262648
641,6.925,0.0552424080057269
642,6.932,0.0459944665824569
643,6.940,0.0481383435077829
644,6.947,0.0518011295462552
645,6.955,0.0210115760651884
646,6.963,0.0363826198508289
647,6.970,0.0193265362677919
648,6.978,0.036517106595222
649,6.985,0.0533279496443656
650,6.993,0.0503929742226093
651,7.000,0.0907548195104825
652,7.008,0.107842547033377
653,7.015,0.0840779482006109
654,7.023,0.0409156142353744
655,7.030,0.0693476941970789
656,7.038,0.0748537397322337
657,7.045,0.0733427416040519
658,7.053,0.0532251068398297
659,7.061,0.048818688214713
660,7.068,0.0553215178553699
661,7.076,0.0499736920195012
662,7.083,0.0288276292099196
663,7.091,0.0306471557517093
664,7.098,0.0366120384147937
665,7.106,0.0440879192060599
666,7.113,0.0576710803897679
667,7.121,0.0521413018997202
668,7.128,0.0402273585434801
669,7.136,0.0439376104917381
670,7.143,0.0346975800534324
671,7.151,0.0441907620105958
672,7.158,0.0328305876018569
673,7.166,0.0375534456255457
674,7.174,0.0365883054599008
675,7.181,0.0544117545844751
676,7.189,0.0762065181611295
677,7.196,0.0608354743754891
678,7.204,0.0291915345182776
679,7.211,0.035314636880648
680,7.219,0.0344206955796818
681,7.226,0.0461368643118143
682,7.234,0.0387954702649413
683,7.241,0.051587532952219
684,7.249,0.0616819497666695
685,7.256,0.0474421768309243
686,7.264,0.0578372110740183
687,7.272,0.0558278208930853
688,7.279,0.0307025326464594
689,7.287,0.032545792143142
690,7.294,0.0343257637601101
691,7.302,0.050203110583466
692,7.309,0.0372844721367594
693,7.317,0.0264306007657359
694,7.324,0.0316993167519616
695,7.332,0.0262565590965212
