#"+EI TIC Scan ACN-End-Blank.d "
#Point,X(Minutes),Y(Counts)
0,2.095,0.100785416774552
1,2.102,0.109478158971358
2,2.110,0.0980867546280232
3,2.117,0.0754431889513722
4,2.125,0.0879419067553216
5,2.132,0.0842950660167687
6,2.140,0.0744154429250527
7,2.148,0.0654508453277373
8,2.155,0.0607431054652417
9,2.163,0.0745082715983977
10,2.170,0.0724991938824313
11,2.178,0.0670687164917498
12,2.185,0.0569901748142946
13,2.193,0.0582168394263533
14,2.200,0.0614857348520016
15,2.208,0.0580775964163358
16,2.215,0.0583361905777968
17,2.223,0.0546959804587686
18,2.230,0.0586411990759303
19,2.238,0.0375823514656686
20,2.246,0.0697143336820818
21,2.253,0.0456584460466821
22,2.261,0.0609884383876535
23,2.268,0.0723069059162167
24,2.276,0.0432382699201879
25,2.283,0.0514403462721696
26,2.291,0.0531377848704778
27,2.298,0.0441466647950638
28,2.306,0.0537013875300723
29,2.313,0.0585483704025854
30,2.321,0.0499020425424527
31,2.328,0.049988240596273
32,2.336,0.0313230466344069
33,2.343,0.0322380721288075
34,2.351,0.0655237821425083
35,2.359,0.0440074217850463
36,2.366,0.0343863928547914
37,2.374,0.0412689759213693
38,2.381,0.065623241435378
39,2.389,0.213704867279199
40,2.396,0.289041966318177
41,2.404,0.170261048153747
42,2.411,0.063216326547933
43,2.419,0.0567116887942596
44,2.426,0.0755028645270939
45,2.434,0.0562276535689608
46,2.441,0.0501937898015369
47,2.449,0.0447566817913308
48,2.457,0.0572288771171817
49,2.464,0.048158189607472
50,2.472,0.0427807571729876
51,2.479,0.0442328628488841
52,2.487,0.0445047182493944
53,2.494,0.0517453547703031
54,2.502,0.0533499646952663
55,2.509,0.0559624287879751
56,2.517,0.0542318370920437
57,2.524,0.0554120873674299
58,2.532,0.0459767157838649
59,2.539,0.0494378991757278
60,2.547,0.0482046039441445
61,2.554,0.0570498503900164
62,2.562,0.0264760637618939
63,2.570,0.0498489975862556
64,2.577,0.0509165273297229
65,2.585,0.0369192895132044
66,2.592,0.0546429355025715
67,2.600,0.0336106103704083
68,2.607,0.0419254072543089
69,2.615,0.0441267729364899
70,2.622,0.0429531532806283
71,2.630,0.0482709101393909
72,2.637,0.036242966321691
73,2.645,0.0372574511089612
74,2.652,0.0499219344010266
75,2.660,0.0443721058589016
76,2.667,0.047176857917825
77,2.675,0.0312036954829634
78,2.683,0.0229750966528832
79,2.690,0.031561748937294
80,2.698,0.0364219930488563
81,2.705,0.0512149052083317
82,2.713,0.0584688029682897
83,2.720,0.0704768549274156
84,2.728,0.051228166447381
85,2.735,0.0531576767290517
86,2.743,0.0483305857151126
87,2.750,0.0425752079677237
88,2.758,0.0596755757217744
89,2.765,0.0826175192770344
90,2.773,0.0414148495509115
91,2.781,0.0362960112778881
92,2.788,0.0560088431246476
93,2.796,0.0453998518852211
94,2.803,0.0653845391324909
95,2.811,0.0472100110154482
96,2.818,0.0387427098824809
97,2.826,0.0426083610653469
98,2.833,0.0581903169482547
99,2.841,0.0531178930119039
100,2.848,0.052746578318524
101,2.856,0.0440074217850463
102,2.863,0.041017012379433
103,2.871,0.0470044618101843
104,2.878,0.0677251478246893
105,2.886,0.0598943861660876
106,2.894,0.0697275949211311
107,2.901,0.0521233000832076
108,2.909,0.0534162708905128
109,2.916,0.0538870448767623
110,2.924,0.0659149886944622
111,2.931,0.0379868192566717
112,2.939,0.165917992365107
113,2.946,2.39879900914674
114,2.954,18.2051748404855
115,2.961,57.0680647018505
116,2.969,100
117,2.976,70.8524331091499
118,2.984,4.70175904368431
119,2.992,0.245054436391704
120,2.999,0.157218619548777
121,3.007,0.116274543984115
122,3.014,0.103112764227702
123,3.022,0.0860057658541262
124,3.029,0.100022895529219
125,3.037,0.0978148992275129
126,3.044,0.0978480523251361
127,3.052,0.0621289049458918
128,3.059,0.0631168672550634
129,3.067,0.0717897175932946
130,3.074,0.0780954367612288
131,3.082,0.0603054845766154
132,3.089,0.0695949825306383
133,3.097,0.0552662137378878
134,3.105,0.060053521034679
135,3.112,0.0631102366355388
136,3.120,0.088266807112029
137,3.127,0.0810858461668422
138,3.135,0.0819080429878977
139,3.142,0.0370651631427466
140,3.150,0.0592644773112466
141,3.157,0.0658619437382651
142,3.165,0.0609818077681288
143,3.172,0.0536284507153013
144,3.180,0.039777086528325
145,3.187,0.054059440984403
146,3.195,0.0465204265848855
147,3.203,0.0635743800022637
148,3.210,0.0562541760470594
149,3.218,0.0358119760525893
150,3.225,0.0589793606716871
151,3.233,0.0364418849074302
152,3.240,0.0461557425110302
153,3.248,0.0565790764037668
154,3.255,0.0610812670609985
155,3.263,0.0489273414723304
156,3.270,0.0541124859406001
157,3.278,0.0390145652829912
158,3.285,0.035725777998769
159,3.293,0.0413087596385172
160,3.300,0.0432051168225647
161,3.308,0.0565061395889957
162,3.316,0.0649734407219631
163,3.323,0.0516392648579088
164,3.331,0.024161977547794
165,3.338,0.0211516762836067
166,3.346,0.0208201453073746
167,3.353,0.0313561997320301
168,3.361,0.0291680952888984
169,3.368,0.0312501098196359
170,3.376,0.0365214523417259
171,3.383,0.0485626573984751
172,3.391,0.0417264886685696
173,3.398,0.0563668965789783
174,3.406,0.0336371328485069
175,3.414,0.03404160063951
176,3.421,0.0296720223727712
177,3.429,0.0392665288249276
178,3.436,0.039591429181635
179,3.444,0.0299173552951829
180,3.451,0.0251035255202931
181,3.459,0.0390013040439419
182,3.466,0.0320126310649697
183,3.474,0.0260848572099401
184,3.481,0.0521233000832076
185,3.489,0.100997596599341
186,3.496,0.0683086423428578
187,3.504,0.0436758908088142
188,3.511,0.0319595861087725
189,3.519,0.0222258366465987
190,3.527,0.0106885586737223
191,3.534,0.0310180381362734
192,3.542,0.0237575097567909
193,3.549,0.0326889542564831
194,3.557,0.0226303044376018
195,3.564,0.0196995706077102
196,3.572,0.0344924827671856
197,3.579,0.0330005933741413
198,3.587,0.0211583069031314
199,3.594,0.0111991163771197
200,3.602,0.0276364221787062
201,3.609,0.0313893528296533
202,3.617,0.0149520470280668
203,3.624,0.0280408899697093
204,3.632,0.0287304744002721
205,3.640,0.0321452434554625
206,3.647,0.0216290808893809
207,3.655,0.0327154767345817
208,3.662,0.0259257223413487
209,3.670,0.0298311572413626
210,3.677,0.0348903199386641
211,3.685,0.0445577632055916
212,3.692,0.0240293651573012
213,3.700,0.0241752387868433
214,3.707,0.0333785386870458
215,3.715,0.0239431671034808
216,3.722,0.025050480564096
217,3.730,0.0271722788119813
218,3.738,0.0298510490999365
219,3.745,0.0238967527668083
220,3.753,0.0239431671034808
221,3.760,0.057222246497657
222,3.768,0.029101789093652
223,3.775,0.0217616932798737
224,3.783,0.0450882127675629
225,3.790,0.0276496834177555
226,3.798,0.00867285033823122
227,3.805,0.018426491658979
228,3.813,0.0496235565224178
229,3.820,0
230,3.828,0.0205416592873397
231,3.835,0.0320855678797407
232,3.843,0.0320723066406914
233,3.851,0.0278353407644455
234,3.858,0.0325497112464656
235,3.866,0.0294134282113102
236,3.873,0.0209527576978675
237,3.881,0.0126644832920655
238,3.888,0.0435034947011736
239,3.896,0.0229817272724078
240,3.903,0.0518845977803205
241,3.911,0.0339819250637882
242,3.918,0.0326558011588599
243,3.926,0.0381260622666892
244,3.933,0.010933891596134
245,3.941,0.0176507091745959
246,3.949,0.034910211797238
247,3.956,0.010396811414638
248,3.964,0.0464143366724912
249,3.971,0.0807675764296594
250,3.979,0.050452383962998
251,3.986,0.0211914600007546
252,3.994,0.0406390670665284
253,4.001,0.0255079933112962
254,4.009,0.0330005933741413
255,4.016,0.0385040075795938
256,4.024,0.022219206027074
257,4.031,0.0267744416405028
258,4.039,0.0256339750822644
259,4.046,0.0215428828355606
260,4.054,0.0322778558459553
261,4.062,0.0250040662274235
262,4.069,0.0412822371604186
263,4.077,0.0360108946383286
264,4.084,0.0126246995749176
265,4.092,0.0354274001201601
266,4.099,0.0334249530237183
267,4.107,0.0393129431616001
268,4.114,0.0526139659280311
269,4.122,0.0708614308598448
270,4.129,0.0490002782871014
271,4.137,0.0478598117288631
272,4.144,0.0448694023232497
273,4.152,0.0253621196817541
274,4.160,0.0397306721916525
275,4.167,0.0192553190995592
276,4.175,0.0360374171164271
277,4.182,0.0188972656452286
278,4.190,0.0441466647950638
279,4.197,0.0387692323605795
280,4.205,0.0370983162403698
281,4.212,0.0378210537685557
282,4.220,0.0226303044376018
283,4.227,0.0312700016782098
284,4.235,0.0303814986619078
285,4.242,0.0228888985990628
286,4.250,0.0252891828669831
287,4.257,0.0274109811148684
288,4.265,0.0167224224411461
289,4.273,0.0347245544505481
290,4.280,0.0224645389494858
291,4.288,0.0289890685617331
292,4.295,0.0202300201696815
293,4.303,0.0371911449137148
294,4.310,0.0132678696688078
295,4.318,0.0547689172735396
296,4.325,0.0247587333050117
297,4.333,0.0362098132240678
298,4.340,0.0440339442631449
299,4.348,0.0171069983735753
300,4.355,0.0308787951262559
301,4.363,0.0368795057960566
302,4.370,0.0418325785809639
303,4.378,0.0375425677485208
304,4.386,0.0488345127989854
305,4.393,0.0303616068033339
306,4.401,0.0440737279802927
307,4.408,0.055650789670317
308,4.416,0.118243837982934
309,4.423,0.122248732175817
310,4.431,0.0680235257032982
311,4.438,0.0514668687502681
312,4.446,0.0494378991757278
313,4.453,0.0403738422855427
314,4.461,0.0268208559771753
315,4.468,0.038185737842411
316,4.476,0.0208201453073746
317,4.484,0.0269866214652913
318,4.491,0.0401948155583774
319,4.499,0.0335376735556372
320,4.506,0.0434106660278286
321,4.514,0.0382321521790835
322,4.521,0.0446439612594119
323,4.529,0.0316015326544419
324,4.536,0.029546040601803
325,4.544,0.0380730173104921
326,4.551,0.0390278265220405
327,4.559,0.0431189187687443
328,4.566,0.0367004790688913
329,4.574,0.02645617190332
330,4.581,0.0435366477987968
331,4.589,0.030766074594337
332,4.597,0.0357788229549661
333,4.604,0.0474089296011875
334,4.612,0.0439543768288492
335,4.619,0.0318070818597058
336,4.627,0.041275606540894
337,4.634,0.0408578775108416
338,4.642,0.0254217952574759
339,4.649,0.0376552882804397
340,4.657,0.0330403770912891
341,4.664,0.0491262600580696
342,4.672,0.0542782514287162
343,4.679,0.0456451848076328
344,4.687,0.0285912313902546
345,4.695,0.0121937093058159
346,4.702,0.032708846115057
347,4.710,0.0266816129671578
348,4.717,0.0288697174102895
349,4.725,0.0219672424851376
350,4.732,0.0396511047573568
351,4.740,0.0197260930858088
352,4.747,0.0184994284737501
353,4.755,0.0205814430044875
354,4.762,0.0510425091006911
355,4.770,0.0386366199700866
356,4.777,0.0432647923982865
357,4.785,0.022663457535225
358,4.792,0.012246754262013
359,4.800,0.0350295629486816
360,4.808,0.0328215666469759
361,4.815,0.043921223731226
362,4.823,0.0348969505581888
363,4.830,0.0161654504010762
364,4.838,0.0401616624607542
365,4.845,0.0298245266218379
366,4.853,0.0316811000887376
367,4.860,0.0348306443629423
368,4.868,0.0370320100451234
369,4.875,0.03968425785498
370,4.883,0.0262572533175808
371,4.890,0.0367004790688913
372,4.898,0.0249443906517017
373,4.906,0.0276098997006076
374,4.913,0.023293366390066
375,4.921,0.0251565704764902
376,4.928,0.0328215666469759
377,4.936,0.0165831794311287
378,4.943,0.0366739565907927
379,4.951,0.0234060869219849
380,4.958,0.0363225337559867
381,4.966,0.0333984305456198
382,4.973,0.0377215944756861
383,4.981,0.0411429941504012
384,4.988,0.0345057440062349
385,4.996,0.031044560614372
386,5.003,0.0202233895501569
387,5.011,0.0217219095627259
388,5.019,0.0235320686929531
389,5.026,0.0233994563024602
390,5.034,0.0307594439748124
391,5.041,0.0518381834436481
392,5.049,0.0350560854267802
393,5.056,0.0421508483181467
394,5.064,0.0254151646379513
395,5.071,0.0417662723857175
396,5.079,0.0423166138062627
397,5.086,0.0386498812091359
398,5.094,0.03986991520167
399,5.101,0.0314556590248998
400,5.109,0.0283657903264168
401,5.116,0.0268009641186014
402,5.124,0.034558788962432
403,5.132,0.0361169845507228
404,5.139,0.0287238437807474
405,5.147,0.0364816686245781
406,5.154,0.0412225615846969
407,5.162,0.041017012379433
408,5.169,0.0306533540624181
409,5.177,0.0408976612279894
410,5.184,0.0264362800447461
411,5.192,0.0340084475418868
412,5.199,0.0403075360902963
413,5.207,0.0305870478671717
414,5.214,0.0238503384301358
415,5.222,0.0456451848076328
416,5.230,0.0404600403393631
417,5.237,0.0370585325232219
418,5.245,0.0503529246701283
419,5.252,0.0505319513972937
420,5.260,0.0377149638561614
421,5.267,0.0265821536742882
422,5.275,0.056095041178468
423,5.282,0.0466663002144276
424,5.290,0.0290155910398317
425,5.297,0.0426746672605934
426,5.305,0.0271059726167349
427,5.312,0.0321386128359379
428,5.320,0.0487350535061158
429,5.327,0.0302621475104643
430,5.335,0.0269203152700449
431,5.343,0.0413220208775665
432,5.350,0.0428271715096601
433,5.358,0.0364485155269549
434,5.365,0.0502335735186848
435,5.373,0.0252493991498352
436,5.380,0.0169014491683114
437,5.388,0.0330271158522398
438,5.395,0.0244802472849768
439,5.403,0.0131153654197411
440,5.410,0.0441665566536377
441,5.418,0.0248316701197828
442,5.425,0.038278566515756
443,5.433,0.0501407448453398
444,5.441,0.0619299863601526
445,5.448,0.0462750936624738
446,5.456,0.0371447305770423
447,5.463,0.0380332335933442
448,5.471,0.0391803307711072
449,5.478,0.0380464948323935
450,5.486,0.0397439334307018
451,5.493,0.0373834328799294
452,5.501,0.0600004760784819
453,5.508,0.0241951306454172
454,5.516,0.0243343736554347
455,5.523,0.0337697452389997
456,5.531,0.0399229601578671
457,5.538,0.0342869335619217
458,5.546,0.0305207416719253
459,5.554,0.0390278265220405
460,5.561,0.050100961128192
461,5.569,0.0242746980797129
462,5.576,0.0238901221472837
463,5.584,0.0521896062784541
464,5.591,0.0373768022604047
465,5.599,0.0466265164972798
466,5.606,0.0419585603519321
467,5.614,0.0194210845876753
468,5.621,0.0302687781299889
469,5.629,0.0715576459099322
470,5.636,0.0754498195708968
471,5.644,0.0577460654401037
472,5.652,0.0468188044634944
473,5.659,0.0540925940820262
474,5.667,0.0470508761468568
475,5.674,0.0456319235685835
476,5.682,0.0401682930802788
477,5.689,0.0700458646583139
478,5.697,0.0565326620670943
479,5.704,0.0636207943389362
480,5.712,0.061200618212442
481,5.719,0.037907251822376
482,5.727,0.0434040354083039
483,5.734,0.0624471746830746
484,5.742,0.064031892749464
485,5.749,0.0810460624496943
486,5.757,0.0471702272983004
487,5.765,0.052023840790338
488,5.772,0.0414148495509115
489,5.780,0.0472299028740221
490,5.787,0.0325696031050396
491,5.795,0.0462021568477027
492,5.802,0.0386764036872345
493,5.810,0.0303814986619078
494,5.817,0.0292012483865216
495,5.825,0.0217351708017752
496,5.832,0.026549000576665
497,5.840,0.0377812700514079
498,5.847,0.0487814678427883
499,5.855,0.0464872734872623
500,5.863,0.0625068502587964
501,5.870,0.0494047460781046
502,5.878,0.0504656452020472
503,5.885,0.0313296772539316
504,5.893,0.0459700851643402
505,5.900,0.0358451291502125
506,5.908,0.0206411185802093
507,5.915,0.049119629438545
508,5.923,0.0306268315843196
509,5.930,0.0355666431301776
510,5.938,0.0401550318412296
511,5.945,0.045068320908989
512,5.953,0.0343333478985942
513,5.960,0.041978452210506
514,5.968,0.0533764871733649
515,5.976,0.0509032660906736
516,5.983,0.0452141945385311
517,5.991,0.0624670665416485
518,5.998,0.0539865041696319
519,6.006,0.0525343984937354
520,6.013,0.0475349113721557
521,6.021,0.0619100945015787
522,6.028,0.0642109194766293
523,6.036,0.0533101809781185
524,6.043,0.0532505054023967
525,6.051,0.0456451848076328
526,6.058,0.0579118309282198
527,6.066,0.0458905177300445
528,6.073,0.0421110646009988
529,6.081,0.0598811249270383
530,6.089,0.0564066802961261
531,6.096,0.118979836750169
532,6.104,0.10601034495997
533,6.111,0.106249047262857
534,6.119,0.0446638531179858
535,6.126,0.0651988817858009
536,6.134,0.0499219344010266
537,6.141,0.0775716178187821
538,6.149,0.0830286176875622
539,6.156,0.0773594379939936
540,6.164,0.0484300450079823
541,6.171,0.0627853362788313
542,6.179,0.0438085031993071
543,6.187,0.0574145344638716
544,6.194,0.0465933633996565
545,6.202,0.0565857070232914
546,6.209,0.0520437326489119
547,6.217,0.0431785943444661
548,6.224,0.044458303912722
549,6.232,0.0450550596699397
550,6.239,0.0508502211344765
551,6.247,0.0661205378997261
552,6.254,0.056260806666584
553,6.262,0.0545699986878004
554,6.269,0.0510425091006911
555,6.277,0.0472100110154482
556,6.284,0.046474012248213
557,6.292,0.0382454134181328
558,6.300,0.0598015574927426
559,6.307,0.0380398642128689
560,6.315,0.0514536075112188
561,6.322,0.0452672394947282
562,6.330,0.0393991412154204
563,6.337,0.0445909163032148
564,6.345,0.0507176087439836
565,6.352,0.0412026697261229
566,6.360,0.0733611744206347
567,6.367,0.0495970340443192
568,6.375,0.0596026389070034
569,6.382,0.050432492104424
570,6.390,0.0491129988190204
571,6.398,0.053449423988136
572,6.405,0.055299366835511
573,6.413,0.0361037233116735
574,6.420,0.0377945312904571
575,6.428,0.0470177230492336
576,6.435,0.0481847120855705
577,6.443,0.0596954675803484
578,6.450,0.0371513611965669
579,6.458,0.0561348248956158
580,6.465,0.0334581061213415
581,6.473,0.0408446162717923
582,6.480,0.0402279686560006
583,6.488,0.0729169229124837
584,6.495,0.0545434762097018
585,6.503,0.04181268672239
586,6.511,0.0576200836691355
587,6.518,0.0560088431246476
588,6.526,0.0416402906147493
589,6.533,0.0384178095257734
590,6.541,0.0474022989816628
591,6.548,0.0439875299264724
592,6.556,0.057056481009541
593,6.563,0.0803763698777055
594,6.571,0.0654906290448851
595,6.578,0.078665670040348
596,6.586,0.0511817521107085
597,6.593,0.0919468009482051
598,6.601,0.072227338481921
599,6.609,0.079441452524731
600,6.616,0.0897388046464995
601,6.624,0.105612507788491
602,6.631,0.101461739966066
603,6.639,0.0857405410731406
604,6.646,0.0610016996267028
605,6.654,0.068527452787171
606,6.661,0.062977624245046
607,6.669,0.0617509596329873
608,6.676,0.0606104930747489
609,6.684,0.0605508174990271
610,6.691,0.0592445854526727
611,6.699,0.0557635102022359
612,6.706,0.0478730729679124
613,6.714,0.0635478575241651
614,6.722,0.0519973183122395
615,6.729,0.029546040601803
616,6.737,0.0478399198702892
617,6.744,0.0472431641130714
618,6.752,0.0501407448453398
619,6.759,0.0456252929490589
620,6.767,0.0526272271670804
621,6.774,0.0533499646952663
622,6.782,0.0770411682568108
623,6.789,0.0427409734558398
624,6.797,0.0743690285883802
625,6.804,0.0550275114350007
626,6.812,0.0533831177928895
627,6.819,0.0347179238310234
628,6.827,0.0473094703083178
629,6.835,0.053263766641446
630,6.842,0.0620095537944483
631,6.850,0.0607895198019142
632,6.857,0.0480852527927009
633,6.865,0.0391604389125333
634,6.872,0.0703110894392996
635,6.880,0.0554585017041024
636,6.887,0.0809001888201522
637,6.895,0.0658685743577897
638,6.902,0.0502600959967834
639,6.910,0.0582102088068286
640,6.917,0.0535289914224317
641,6.925,0.0688457225243538
642,6.933,0.053873783637713
643,6.940,0.0598744943075137
644,6.948,0.0612138794514913
645,6.955,0.0709078451965173
646,6.963,0.0816892325435846
647,6.970,0.0689385511976987
648,6.978,0.0839171207038641
649,6.985,0.149633190812587
650,6.993,0.209786171140136
651,7.000,0.165109056783101
652,7.008,0.0977817461298897
653,7.015,0.0769881233006137
654,7.023,0.0876435288767127
655,7.030,0.114729609634874
656,7.038,0.187248695375879
657,7.046,0.153664607483569
658,7.053,0.123097451474971
659,7.061,0.116811624165611
660,7.068,0.0958787583263176
661,7.076,0.105433481061326
662,7.083,0.0801774512919663
663,7.091,0.0845271377001312
664,7.098,0.0804294148339026
665,7.106,0.0935182577755452
666,7.113,0.0805089822681983
667,7.121,0.132188030843255
668,7.128,0.149447533465897
669,7.136,0.106341875936202
670,7.144,0.1151672305235
671,7.151,0.0793353626123368
672,7.159,0.0847393175249197
673,7.166,0.107091135942487
674,7.174,0.164684697133524
675,7.181,0.160838937809231
676,7.189,0.249622933244182
677,7.196,0.251850821404462
678,7.204,0.183051513216781
679,7.211,0.136325537426631
680,7.219,0.121260769866646
681,7.226,0.116864669121808
682,7.234,0.216071998449496
683,7.241,0.31460300458567
684,7.249,0.242183378137535
685,7.257,0.192195137541262
686,7.264,0.168775789380227
687,7.272,0.139189965061277
688,7.279,0.116327588940312
689,7.287,0.118701350730134
690,7.294,0.116062364159327
691,7.302,0.113191305905157
692,7.309,0.108682484628401
693,7.317,0.0942144728256325
694,7.324,0.0843016966362933
695,7.332,0.0991675456105398
696,7.339,0.0917014680257934
