#"+EI TIC Scan EA-Blank2.d "
#Point,X(Minutes),Y(Counts)
0,2.095,0.111331461697116
1,2.102,0.106138681011354
2,2.110,0.100642555719814
3,2.117,0.103025407425732
4,2.125,0.101672330828904
5,2.132,0.0901013306690098
6,2.140,0.0922007946511086
7,2.147,0.0926358546778173
8,2.155,0.084078343693749
9,2.162,0.078219003150553
10,2.170,0.0808133978052379
11,2.177,0.0800989414311016
12,2.185,0.0836033699031221
13,2.193,0.0800869673019261
14,2.200,0.0672187698146892
15,2.208,0.0573201563629684
16,2.215,0.0682046397834694
17,2.223,0.0683124069460486
18,2.230,0.0618184375565528
19,2.238,0.0634628846299838
20,2.245,0.0528338492985595
21,2.253,0.057735259507718
22,2.260,0.0581144402649412
23,2.268,0.0569489583585289
24,2.275,0.0585854226791763
25,2.283,0.0544623308664232
26,2.291,0.0543944774677622
27,2.298,0.0430469943858098
28,2.306,0.0675141316676841
29,2.313,0.0538955554187844
30,2.321,0.038692402742331
31,2.328,0.0519757033743176
32,2.336,0.053859633031258
33,2.343,0.0437255283724197
34,2.351,0.0431467787956054
35,2.358,0.0504669630982085
36,2.366,0.0502913425369683
37,2.373,0.0482238095660041
38,2.381,0.0562065623496498
39,2.388,0.0502394546438746
40,2.396,0.154949222906956
41,2.404,0.402725886558537
42,2.411,0.186501053284316
43,2.419,0.0626686007280111
44,2.426,0.0495728947864402
45,2.434,0.0491897226528252
46,2.441,0.0452701910360551
47,2.449,0.0352438535397961
48,2.456,0.0499001876505697
49,2.464,0.0463877764257655
50,2.471,0.0436097784570568
51,2.479,0.0356070687914519
52,2.486,0.0581663281580349
53,2.494,0.0463797936729819
54,2.501,0.0430669512677689
55,2.509,0.0529495992139224
56,2.517,0.0457651217086412
57,2.524,0.0329208724797551
58,2.532,0.0539873570757963
59,2.539,0.0503512131828457
60,2.547,0.0417178660473328
61,2.554,0.0404206687199903
62,2.562,0.0404525997311249
63,2.569,0.0340384578694655
64,2.577,0.0337550701456461
65,2.584,0.0453500185638916
66,2.592,0.033148380934089
67,2.599,0.0261674636247908
68,2.607,0.043717545619636
69,2.615,0.0375349035887024
70,2.622,0.0396064279360585
71,2.630,0.0413426766665014
72,2.637,0.0378382481944809
73,2.645,0.0463358885326718
74,2.652,0.0349764313215439
75,2.660,0.0378941274639665
76,2.667,0.0428474255662186
77,2.675,0.0235850430992814
78,2.682,0.0343537766044196
79,2.690,0.0341142940209102
80,2.697,0.0319828990276768
81,2.705,0.040787875348038
82,2.712,0.0342699577001913
83,2.720,0.0397501174861641
84,2.728,0.0494890758822119
85,2.735,0.0607008521668424
86,2.743,0.043402226884682
87,2.750,0.0438013645238643
88,2.758,0.0439650109559291
89,2.765,0.046715069289895
90,2.773,0.0732018430260317
91,2.780,0.0465594056106139
92,2.788,0.0450905790984231
93,2.795,0.0316236751524127
94,2.803,0.0422367449782697
95,2.810,0.0537518658686788
96,2.818,0.0443402003367604
97,2.826,0.0318511836067466
98,2.833,0.0358465513749613
99,2.841,0.032609545121193
100,2.848,0.0287977806670021
101,2.856,0.044575691543878
102,2.863,0.0521074187952477
103,2.871,0.0319589507693258
104,2.878,0.03244989006552
105,2.886,0.0501476529868627
106,2.893,0.0540232794633227
107,2.901,0.0474694394279496
108,2.908,0.0414664093346479
109,2.916,0.0496088171739666
110,2.923,0.0450825963456395
111,2.931,0.0386963941187229
112,2.939,0.0466192762564913
113,2.946,0.0381615496822186
114,2.954,0.227356782031015
115,2.961,5.73116547312538
116,2.969,32.7039012590957
117,2.976,72.2299907711395
118,2.984,100
119,2.991,7.52479023920079
120,2.999,0.113710322026642
121,3.006,0.0763909527630982
122,3.014,0.0717210423846654
123,3.021,0.0534046161225902
124,3.029,0.0564340708039837
125,3.037,0.0787099424467473
126,3.044,0.0834596803530165
127,3.052,0.0652270729951696
128,3.059,0.0602298697526073
129,3.067,0.0609243692447845
130,3.074,0.0538117365145561
131,3.082,0.0495050413877792
132,3.089,0.0532250041849581
133,3.097,0.0444120451118132
134,3.104,0.0416819436598064
135,3.112,0.0573121736101848
136,3.119,0.0499680410492307
137,3.127,0.0773209434623929
138,3.134,0.072112197271064
139,3.142,0.0402610136643174
140,3.150,0.0420930554281641
141,3.157,0.0600861802025017
142,3.165,0.0613993430354114
143,3.172,0.0523987892718508
144,3.180,0.0456014752765764
145,3.187,0.0492895070626208
146,3.195,0.0405244445061777
147,3.202,0.0319509680165422
148,3.210,0.0348127848894792
149,3.217,0.0295361852994893
150,3.225,0.0389917559717177
151,3.232,0.0336991908761606
152,3.240,0.0275245315980106
153,3.247,0.0452143117665696
154,3.255,0.222247820249482
155,3.263,0.569685161028488
156,3.270,0.354450189099439
157,3.278,0.0768140386606314
158,3.285,0.035088189860515
159,3.293,0.0247624991348692
160,3.300,0.0360900253348625
161,3.308,0.0511415057084266
162,3.315,0.0542587706704403
163,3.323,0.0348447159006138
164,3.330,0.0368044817089988
165,3.338,0.0316915285510737
166,3.345,0.0243434046137278
167,3.353,0.0356629480609375
168,3.361,0.0364093354462083
169,3.368,0.0211463121238776
170,3.376,0.022108233834307
171,3.383,0.0348207676422628
172,3.391,0.016787729104007
173,3.398,0.0144607566675743
174,3.406,0.0180569867966067
175,3.413,0.014512644560668
176,3.421,0.0305180638918778
177,3.428,0.0203280799635539
178,3.436,0.0242076978164058
179,3.443,0.03087329639075
180,3.451,0.0298914177983616
181,3.458,0.0331523723104809
182,3.466,0.0190109257542524
183,3.474,0.022423552569261
184,3.481,0.0446754759536735
185,3.489,0.105025086998036
186,3.496,0.0556916747951047
187,3.504,0.0217170789479083
188,3.511,0.0270455664309919
189,3.519,0.0251097488809578
190,3.526,0.0242276546983649
191,3.534,0.0118464051309303
192,3.541,0.0118663620128894
193,3.549,0.0233735001505148
194,3.556,0.0209547260570701
195,3.564,0.0210744673488248
196,3.572,0.0244791114110497
197,3.579,0.0192583910905454
198,3.587,0.0157898850060513
199,3.594,0.0212620620392405
200,3.602,0.0177376766852609
201,3.609,0.0154905317766646
202,3.617,0.0218208547340957
203,3.624,0.015482549023881
204,3.632,0.021725061700692
205,3.639,0.0228186988320514
206,3.647,0.0181767280883614
207,3.654,0.0127923613357923
208,3.662,0.0243314304845523
209,3.669,0.0118384223781467
210,3.677,0.0185479260928009
211,3.685,0.010704871482869
212,3.692,0.0159455486853324
213,3.700,0.0106050870730734
214,3.707,0.0132872920083784
215,3.715,0.0185798571039355
216,3.722,0.0170471685694755
217,3.730,0.0189231154736323
218,3.737,0.0221920527385352
219,3.745,0.0243952925068215
220,3.752,0.023549120711755
221,3.760,0.0157898850060513
222,3.767,0.0178294783422728
223,3.775,0.0196495459769441
224,3.783,0.017170901237622
225,3.790,0.016360651830082
226,3.798,0.0203799678566476
227,3.805,0.0283507465111179
228,3.813,0.0163446863245147
229,3.820,0.024766490511261
230,3.828,0.0165083327565794
231,3.835,0.012868197487237
232,3.843,0.0146403686052063
233,3.850,0.0155464110461501
234,3.858,0.0134070333001331
235,3.865,0.00944758791944477
236,3.873,0.0174063924447396
237,3.880,0.0251855850324024
238,3.888,0.0157340057365658
239,3.896,0.0130438180484772
240,3.903,0.0252454556782797
241,3.911,0.0159934452020343
242,3.918,0.0191905376918844
243,3.926,0.0126446804092949
244,3.933,0.0144607566675743
245,3.941,0.0195816925782831
246,3.948,0.0227229057986477
247,3.956,0.0299353229386716
248,3.963,0.0440168988490228
249,3.971,0.103679993153991
250,3.978,0.0472459223500075
251,3.986,0.0217769495937856
252,3.994,0.0255807312951929
253,4.001,0.0199289423243717
254,4.009,0.0211542948766613
255,4.016,0.0206473900748998
256,4.024,0.0210185880793393
257,4.031,0.0133311971486884
258,4.039,0.0183643227787771
259,4.046,0.0143370239994278
260,4.054,0.0194858995448793
261,4.061,0.0237167585202116
262,4.069,0.0276203246314144
263,4.076,0.013634541754467
264,4.084,0.0246786802306409
265,4.091,0.136101943584768
266,4.099,0.234948379928262
267,4.107,0.142316516626837
268,4.114,0.0342140784307058
269,4.122,0.00949548443614664
270,4.129,0.0271413594643956
271,4.137,0.026095618849738
272,4.144,0.0262393083998436
273,4.152,0.0226430782708112
274,4.159,0.0209986311973802
275,4.167,0.0208589330236664
276,4.174,0.0169872979235982
277,4.182,0.0151153423958333
278,4.189,0.0142452223424159
279,4.197,0.0147720840261365
280,4.204,0.0091921398303681
281,4.212,0.0168356256207089
282,4.220,0.0236768447562933
283,4.227,0.028777823785043
284,4.235,0.0138780157143682
285,4.242,0.0306657448183752
286,4.250,0.0174024010683478
287,4.257,0.0276402815133735
288,4.265,0.0223277595358572
289,4.272,0.0236409223687669
290,4.280,0.019018908507036
291,4.287,0.0227867678209168
292,4.295,0.0273768506715132
293,4.302,0.023345560515772
294,4.310,0.015211135429237
295,4.318,0.0156062816920275
296,4.325,0.0239602324801128
297,4.333,0.0242635770858913
298,4.340,0.0178135128367055
299,4.348,0.0242196719455813
300,4.355,0.0240839651482593
301,4.363,0.0211662690058367
302,4.370,0.0207671313666545
303,4.378,0.0194978736740548
304,4.385,0.0238085601772235
305,4.393,0.021385794707387
306,4.400,0.02627523078737
307,4.408,0.0359303702791896
308,4.415,0.128454466418036
309,4.423,0.148946192813655
310,4.431,0.0558992263674795
311,4.438,0.018907149968065
312,4.446,0.0229264659946306
313,4.453,0.0206912952152098
314,4.461,0.016248893291111
315,4.468,0.0169713324180309
316,4.476,0.0300670383596018
317,4.483,0.0154266697543954
318,4.491,0.0258721017717959
319,4.498,0.0266384460390259
320,4.506,0.0171988408723648
321,4.513,0.0234972328186613
322,4.521,0.0142731619771586
323,4.529,0.0250618523642559
324,4.536,0.0136385331308588
325,4.544,0.0296758834732031
326,4.551,0.0138660415851927
327,4.559,0.0264867737361367
328,4.566,0.0174582803378333
329,4.574,0.0198570975493188
330,4.581,0.0153149112154244
331,4.589,0.0137143692823034
332,4.596,0.0220802941995642
333,4.604,0.0129759646498162
334,4.611,0.0193621668767328
335,4.619,0.0129679818970325
336,4.626,0.0167118929525624
337,4.634,0.00439450540739699
338,4.642,0
339,4.649,0.0111080004984431
340,4.657,0.00996646685038174
341,4.664,0.0222000354913189
342,4.672,0.0244352062707397
343,4.679,0.0113155520708179
344,4.687,0.0135946279905487
345,4.694,0.00888879522458956
346,4.702,0.0108246127746237
347,4.709,0.0117665776030939
348,4.717,0.0177057456741263
349,4.724,0.00963917398625226
350,4.732,0.0252135246671452
351,4.740,0.0406202375395815
352,4.747,0.0188832017097141
353,4.755,0.0204198816205659
354,4.762,0.0226670265291622
355,4.770,0.0150674458791314
356,4.777,0.0243354218609441
357,4.785,0.0173904269391723
358,4.792,0.0212421051572814
359,4.800,0.0162568760438946
360,4.807,0.0161211692465726
361,4.815,0.014784058155312
362,4.822,0.0279675743775029
363,4.830,0.016787729104007
364,4.837,0.0304302536112577
365,4.845,0.0326893726490294
366,4.853,0.0169553669124636
367,4.860,0.0179811506451621
368,4.868,0.0190348740126033
369,4.875,0.0186916156429066
370,4.883,0.0094356137902693
371,4.890,0.0150195493624295
372,4.898,0.0212341224044977
373,4.905,0.0129879387789917
374,4.913,0.0235291638297959
375,4.920,0.0182844952509406
376,4.928,0.0152430664403716
377,4.935,0.0162528846675028
378,4.943,0.0171669098612302
379,4.950,0.0171309874737038
380,4.958,0.0112037935318468
381,4.966,0.0124810339772302
382,4.973,0.00963917398625226
383,4.981,0.0231459916961809
384,4.988,0.0219366046494586
385,4.996,0.0193621668767328
386,5.003,0.0215015446227499
387,5.011,0.0133072488903375
388,5.018,0.017645875028249
389,5.026,0.0219525701550259
390,5.033,0.0339466562124536
391,5.041,0.052011625761844
392,5.048,0.0734932135026348
393,5.056,0.106206534410015
394,5.064,0.0923963720943079
395,5.071,0.0433463476151965
396,5.079,0.026410937584692
397,5.086,0.0322622953751044
398,5.094,0.0320747006846887
399,5.101,0.0262233428942763
400,5.109,0.0334038290231657
401,5.116,0.0185080123288827
402,5.124,0.0145405841954108
403,5.131,0.0243992838832133
404,5.139,0.0188991672152814
405,5.146,0.0165242982621467
406,5.154,0.0227508454333904
407,5.161,0.0126007752689848
408,5.169,0.013295274761162
409,5.177,0.0242156805691894
410,5.184,0.0132872920083784
411,5.192,0.0130797404360036
412,5.199,0.0161451175049236
413,5.207,0.0175660475004125
414,5.214,0.00980681179470882
415,5.222,0.0203121144579867
416,5.229,0.0192543997141536
417,5.237,0.0150235407388213
418,5.244,0.0168595738790599
419,5.252,0.0227508454333904
420,5.259,0.0186477105025965
421,5.267,0.0205196660303614
422,5.275,0.0126806027968213
423,5.282,0.017015237558341
424,5.290,0.0185758657275437
425,5.297,0.0160054193312098
426,5.305,0.0172986252821604
427,5.312,0.0239163273398027
428,5.320,0.0108685179149337
429,5.327,0.0103416562312131
430,5.335,0.00873313154530847
431,5.342,0.00403129015574111
432,5.350,0.0147641012733528
433,5.357,0.0199528905827226
434,5.365,0.00932385525129826
435,5.372,0.0191186929168316
436,5.380,0.0256565674466375
437,5.388,0.0279476174955438
438,5.395,0.0131635593402319
439,5.403,0.0197253821283887
440,5.410,0.0182046677231042
441,5.418,0.0150235407388213
442,5.425,0.0157619453713086
443,5.433,0.0152869715806816
444,5.440,0.00819030435602056
445,5.448,0.0254569986270464
446,5.455,0.0181328229480514
447,5.463,0.0163806087120411
448,5.470,0.0344815006489579
449,5.478,0.033104475793779
450,5.486,0.0223117940302899
451,5.493,0.0158258073935777
452,5.501,0.0154665835183137
453,5.508,0.00703679657878374
454,5.516,0.0105771474383306
455,5.523,0.0194898909212711
456,5.531,0.0154266697543954
457,5.538,0.014784058155312
458,5.546,0.0235451293353632
459,5.553,0.0202562351885011
460,5.561,0.0185678829747601
461,5.568,0.0166560136830769
462,5.576,0.0190548308945624
463,5.583,0.0105092940396697
464,5.591,0.0206114676873734
465,5.599,0.0154306611307873
466,5.606,0.0177536421908282
467,5.614,0.0134349729348758
468,5.621,0.0209667001862456
469,5.629,0.0185519174691928
470,5.636,0.0168276428679253
471,5.644,0.0151871871708861
472,5.651,0.0177496508144364
473,5.659,0.0160573072243035
474,5.666,0.0207950710013972
475,5.674,0.0155583851753256
476,5.681,0.0120419825741296
477,5.689,0.0173345476696868
478,5.696,0.0194539685337447
479,5.704,0.0256286278118947
480,5.712,0.0140975414159184
481,5.719,0.0308852705199255
482,5.727,0.0241158961593939
483,5.734,0.0297277713662968
484,5.742,0.0335834409607977
485,5.749,0.0294922801591793
486,5.757,0.00995449272120627
487,5.764,0.0218847167563649
488,5.772,0.0250498782350804
489,5.779,0.0198690716784943
490,5.787,0.0201564507787056
491,5.794,0.00874909705087576
492,5.802,0.0254809468853973
493,5.810,0.02780791932183
494,5.817,0.0156501868323375
495,5.825,0.013227421362501
496,5.832,0.0145326014426271
497,5.840,0.0198251665381843
498,5.847,0.0129320595095061
499,5.855,0.0149796355985113
500,5.862,0.0205116832775778
501,5.870,0.0181607625827941
502,5.877,0.0167677722220479
503,5.885,0.0183922624135198
504,5.892,0.0224155698164773
505,5.900,0.0136864296475607
506,5.907,0.019086761905697
507,5.915,0.0171190133445283
508,5.923,0.015730014360174
509,5.930,0.0190707964001297
510,5.938,0.020168424907881
511,5.945,0.0216691824312064
512,5.953,0.0130078956609508
513,5.960,0.0215414583866681
514,5.968,0.00825416637828972
515,5.975,0.0175979785115471
516,5.983,0.0186716587609474
517,5.990,0.0187235466540411
518,5.998,0.0117386379683511
519,6.005,0.012844249228886
520,6.013,0.0277320831703854
521,6.021,0.0130917145651791
522,6.028,0.0186477105025965
523,6.036,0.0233056467518538
524,6.043,0.0223596905469918
525,6.051,0.0163526690772984
526,6.058,0.0311487013617858
527,6.066,0.0353516207023753
528,6.073,0.0334317686579085
529,6.081,0.0404007118380312
530,6.088,0.0356988704484639
531,6.096,0.0406242289159733
532,6.103,0.0375109553303515
533,6.111,0.0321305799541742
534,6.118,0.0341422336556529
535,6.126,0.0366528094061095
536,6.134,0.0391354455218234
537,6.141,0.0294563577716529
538,6.149,0.0369481712591044
539,6.156,0.026051713709428
540,6.164,0.0246387664667227
541,6.171,0.0395146262790465
542,6.179,0.0574279235255476
543,6.186,0.0399736345641062
544,6.194,0.0319828990276768
545,6.201,0.0252294901727124
546,6.209,0.0294324095133019
547,6.216,0.0281032811748249
548,6.224,0.0324458986891282
549,6.232,0.0395984451832748
550,6.239,0.034186138795963
551,6.247,0.0318352181011793
552,6.254,0.0348487072770056
553,6.262,0.0309172015310601
554,6.269,0.0241717754288794
555,6.277,0.0353556120787671
556,6.284,0.0260357482038607
557,6.292,0.0277280917939936
558,6.299,0.0227787850681332
559,6.307,0.0327811743060413
560,6.314,0.0177815818255709
561,6.322,0.0218847167563649
562,6.329,0.0173584959280377
563,6.337,0.0242196719455813
564,6.345,0.022108233834307
565,6.352,0.0256964812105557
566,6.360,0.0201364938967464
567,6.367,0.026590549522324
568,6.375,0.0289055478295813
569,6.382,0.0265745840167568
570,6.390,0.0238524653175336
571,6.397,0.0229743625113325
572,6.405,0.0326135364975848
573,6.412,0.0310249686936393
574,6.420,0.0164883758746203
575,6.427,0.0216811565603819
576,6.435,0.0249341283197176
577,6.443,0.0178494352242319
578,6.450,0.0189789947431178
579,6.458,0.0315238907426171
580,6.465,0.0316316579051963
581,6.473,0.0281711345734859
582,6.480,0.0258760931481878
583,6.488,0.010501311286886
584,6.495,0.0314400718383889
585,6.503,0.0238564566939254
586,6.510,0.0195218219324057
587,6.518,0.0368483868493089
588,6.525,0.0223078026538981
589,6.533,0.0222958285247226
590,6.540,0.021657208302031
591,6.548,0.0205994935581979
592,6.556,0.0313642356869442
593,6.563,0.0286221601057619
594,6.571,0.0214097429657379
595,6.578,0.0230422159099935
596,6.586,0.0227867678209168
597,6.593,0.0206354159457243
598,6.601,0.0243952925068215
599,6.608,0.0318910973706648
600,6.616,0.0236449137451588
601,6.623,0.0316356492815882
602,6.631,0.0313442788049851
603,6.638,0.0718926715695138
604,6.646,0.0700726039348425
605,6.653,0.0447513121051182
606,6.661,0.0476729996239325
607,6.669,0.036868343731268
608,6.676,0.034006526858331
609,6.684,0.0313802011925115
610,6.691,0.0352478449161879
611,6.699,0.0306577620655916
612,6.706,0.0295122370411384
613,6.714,0.0298275557760924
614,6.721,0.0280154708942048
615,6.729,0.0506106526483142
616,6.736,0.0744671093422395
617,6.744,0.0446794673300654
618,6.751,0.0367885162034315
619,6.759,0.0366727662880686
620,6.767,0.0334597082926512
621,6.774,0.0351400777536087
622,6.782,0.034637164328239
623,6.789,0.0306577620655916
624,6.797,0.032653450261503
625,6.804,0.0380697480252067
626,6.812,0.0332561480966683
627,6.819,0.0259718861815915
628,6.827,0.0240480427607329
629,6.834,0.017621926769898
630,6.842,0.0384888425463481
631,6.849,0.0154546093891382
632,6.857,0.0223237681594654
633,6.864,0.0251057575045659
634,6.872,0.0274087816826477
635,6.880,0.0189031585916732
636,6.887,0.0226670265291622
637,6.895,0.025736394974474
638,6.902,0.0349724399451521
639,6.910,0.0313083564174587
640,6.917,0.0343777248627705
641,6.925,0.0385726614505763
642,6.932,0.0326893726490294
643,6.940,0.0219685356605932
644,6.947,0.0284704878028726
645,6.955,0.0206154590637652
646,6.962,0.0266863425557278
647,6.970,0.0343537766044196
648,6.978,0.0281072725512167
649,6.985,0.0431986666886991
650,6.993,0.0635387207814285
651,7.000,0.0517960914366856
652,7.008,0.0490220848443687
653,7.015,0.047752827151769
654,7.023,0.0551328821002495
655,7.030,0.0799153381170778
656,7.038,0.0513211176460586
657,7.045,0.0473177671250603
658,7.053,0.0460085956685424
659,7.060,0.0316236751524127
660,7.068,0.0292488061992781
661,7.075,0.0350243278382458
662,7.083,0.0268340234822252
663,7.091,0.0384888425463481
664,7.098,0.0492775329334453
665,7.106,0.0407200219493771
666,7.113,0.0340185009875064
667,7.121,0.0346331729518472
668,7.128,0.0350841984841231
669,7.136,0.0298874264219697
670,7.143,0.0364372750809511
671,7.151,0.037678593138808
672,7.158,0.0426797877577621
673,7.166,0.0411151682121675
674,7.173,0.0387083682478983
675,7.181,0.0325656399808829
676,7.189,0.0294643405244365
677,7.196,0.0313881839452952
678,7.204,0.0344176386266887
679,7.211,0.0366727662880686
680,7.219,0.0518399965769956
681,7.226,0.0724155418768426
682,7.234,0.0800310880324406
683,7.241,0.0700247074181407
684,7.249,0.0471860517041301
685,7.256,0.0446355621897553
686,7.264,0.0402650050407092
687,7.271,0.0262432997762355
688,7.279,0.047549266955786
689,7.286,0.047301801619493
690,7.294,0.0203121144579867
691,7.302,0.0290851597672134
692,7.309,0.0356988704484639
693,7.317,0.0328849500922287
694,7.324,0.0381615496822186
