#"+EI TIC Scan END-MEOH.d "
#Point,X(Minutes),Y(Counts)
0,2.095,0.171419149619354
1,2.102,0.124597465658659
2,2.110,0.143878241366423
3,2.117,0.157761041855226
4,2.125,0.133248135558619
5,2.132,0.130557172689306
6,2.140,0.106648796818608
7,2.147,0.139619779251168
8,2.155,0.121376869938328
9,2.163,0.107419171874634
10,2.170,0.109088317829357
11,2.178,0.0964359774994845
12,2.185,0.0915301863440964
13,2.193,0.0947561318912055
14,2.200,0.0843239696741859
15,2.208,0.0746086842454128
16,2.215,0.0835910434056056
17,2.223,0.0888445733015611
18,2.230,0.101170574197978
19,2.238,0.0842062734850708
20,2.245,0.089245810309908
21,2.253,0.0889676193174541
22,2.260,0.0821465901755567
23,2.268,0.0743786416939606
24,2.276,0.0631226061531354
25,2.283,0.0699650346021446
26,2.291,0.0671777748508281
27,2.298,0.0801457549606001
28,2.306,0.0717144279585371
29,2.313,0.070692611043947
30,2.321,0.0704465190121609
31,2.328,0.0732765773777011
32,2.336,0.0523480550223264
33,2.343,0.0720675165258824
34,2.351,0.0700024833895903
35,2.358,0.0632456521690284
36,2.366,0.0595810208261267
37,2.374,0.0579386240052933
38,2.381,0.0702218262874866
39,2.389,0.0911984970838629
40,2.396,0.193321340448318
41,2.404,0.274890149331855
42,2.411,0.198960057872286
43,2.419,0.0939697073548456
44,2.426,0.0657065724868895
45,2.434,0.0721959123685534
46,2.441,0.0617209515373102
47,2.449,0.0644333137137353
48,2.456,0.0625501746878938
49,2.464,0.0785140577933227
50,2.471,0.0642621192568406
51,2.479,0.0617690999783118
52,2.487,0.0624699272862244
53,2.494,0.0737687614412733
54,2.502,0.0556756472782168
55,2.509,0.0595168229047912
56,2.517,0.0648131514149703
57,2.524,0.0580402707140745
58,2.532,0.0496410426726793
59,2.539,0.0544986853870659
60,2.547,0.067841153371295
61,2.554,0.0556756472782168
62,2.562,0.07186422310832
63,2.569,0.0678839519855187
64,2.577,0.060570738780049
65,2.585,0.0649415472576413
66,2.592,0.0515348813520767
67,2.600,0.0444142619106136
68,2.607,0.0522357086599893
69,2.615,0.0533912712440284
70,2.622,0.0573019946187162
71,2.630,0.0648452503756381
72,2.637,0.057339443406162
73,2.645,0.0462706518025653
74,2.652,0.0477044053790582
75,2.660,0.0555044528213221
76,2.667,0.0543595898908389
77,2.675,0.0579600233124052
78,2.682,0.0471319739138166
79,2.690,0.0581044686354101
80,2.698,0.0506682094140474
81,2.705,0.0654551306283254
82,2.713,0.0508287042173861
83,2.720,0.0646045081706299
84,2.728,0.0942906969615231
85,2.735,0.0762457312394682
86,2.743,0.0618600470335371
87,2.750,0.0453023331557547
88,2.758,0.0618065487657575
89,2.765,0.0852601893603287
90,2.773,0.0952964643957793
91,2.780,0.0853404367619981
92,2.788,0.0777918311782983
93,2.795,0.0511710931311755
94,2.803,0.0693016560816777
95,2.811,0.0777490325640746
96,2.818,0.0937503644569492
97,2.826,0.0412792634187298
98,2.833,0.0671510257169383
99,2.841,0.0685473305059855
100,2.848,0.0494003004676712
101,2.856,0.054477286079954
102,2.863,0.0537176106774839
103,2.871,0.0510747962491723
104,2.878,0.0704090702247152
105,2.886,0.0676111108198428
106,2.893,0.0745123873634096
107,2.901,0.0792255847547912
108,2.909,0.0655460776835507
109,2.916,0.0713720390447478
110,2.924,0.0665732444249188
111,2.931,0.0555098026481001
112,2.939,0.0565476690430241
113,2.946,0.0499727319329127
114,2.954,0.445501475107738
115,2.961,9.08722111486752
116,2.969,46.7432394506498
117,2.976,100
118,2.984,65.0559426036344
119,2.991,0.928922522417647
120,2.999,0.137051862397747
121,3.006,0.131809032155348
122,3.014,0.0993676825738059
123,3.022,0.0897540438538141
124,3.029,0.089112064640459
125,3.037,0.104203925981081
126,3.044,0.109960339594164
127,3.052,0.0771445021381653
128,3.059,0.0726987960856815
129,3.067,0.0844363160365231
130,3.074,0.0721584635811077
131,3.082,0.0586822499274296
132,3.089,0.0617958491122016
133,3.097,0.0658028693688927
134,3.104,0.0528990871804562
135,3.112,0.0604369931106001
136,3.120,0.0736189662914905
137,3.127,0.0937289651498374
138,3.135,0.0865869464012625
139,3.142,0.0432159007123508
140,3.150,0.0495286963103422
141,3.157,0.0543328407569491
142,3.165,0.0681567931511946
143,3.172,0.0646794057455214
144,3.180,0.0522517581403232
145,3.187,0.0504435166893731
146,3.195,0.0390002372113193
147,3.202,0.0318903174234121
148,3.210,0.0366302639486836
149,3.217,0.0468484330945848
150,3.225,0.03839570678541
151,3.233,0.0328104876292211
152,3.240,0.024769697981949
153,3.248,0.0440290743826006
154,3.255,0.0727522943534611
155,3.263,0.131637837698453
156,3.270,0.0867313917242674
157,3.278,0.0625822736485615
158,3.285,0.048378483553081
159,3.293,0.0442698165876087
160,3.300,0.0331047281020088
161,3.308,0.0550550673719736
162,3.315,0.0575213375166126
163,3.323,0.0394817216213356
164,3.331,0.0292689023022124
165,3.338,0.0295310438143323
166,3.346,0.0191202809044246
167,3.353,0.0434459432638031
168,3.361,0.0381763638875137
169,3.368,0.0361380798851114
170,3.376,0.0355068003253123
171,3.383,0.0286857711834149
172,3.391,0.0170659474216884
173,3.398,0.0287232199708606
174,3.406,0.0146424758912731
175,3.413,0.0253207301400788
176,3.421,0.0170017495003529
177,3.428,0.0128235347867671
178,3.436,0.0345973297730593
179,3.444,0.0478862994895088
180,3.451,0.0454628279590935
181,3.459,0.0268347311182411
182,3.466,0.0343619373948291
183,3.474,0.0258717622982085
184,3.481,0.0496356928459013
185,3.489,0.10008990918883
186,3.496,0.0817614026475437
187,3.504,0.0448261985725164
188,3.511,0.0320615118803068
189,3.519,0.0198318078658931
190,3.526,0.0236248350514659
191,3.534,0.0222873783569762
192,3.542,0.0298252842871201
193,3.549,0.0261071546764387
194,3.557,0.019591065660885
195,3.564,0.0214849043402824
196,3.572,0.006355594212215
197,3.579,0.0273055158747015
198,3.587,0.0204791369060261
199,3.594,0.0354426024039768
200,3.602,0.0385508517619708
201,3.609,0.0242775139183768
202,3.617,0.0222017811285288
203,3.624,0.0233252447519002
204,3.632,0.0123367005499729
205,3.639,0.0328051378024431
206,3.647,0.0236997326263573
207,3.655,0.013743704992576
208,3.662,0.0236569340121336
209,3.670,0.00801404051338222
210,3.677,0.0261767024245522
211,3.685,0.0117910182186211
212,3.692,0.017119445689468
213,3.700,0.0154823986954126
214,3.707,0.0380265687377308
215,3.715,0.0159852824125408
216,3.722,0.00742555956780675
217,3.730,0.0154770488686347
218,3.737,0.0214207064189469
219,3.745,0.00978483317688657
220,3.752,0.0105231092722449
221,3.760,0.026075055715771
222,3.768,0.019066782636645
223,3.775,0.0144498821272666
224,3.783,0.018419453596512
225,3.790,0.0197997089052254
226,3.798,0.0255240235576412
227,3.805,0.0169857000200191
228,3.813,0.0175848806191504
229,3.820,0.0305742600360343
230,3.828,0.0190774822902009
231,3.835,0.016868003830904
232,3.843,0.0185799483998508
233,3.850,0.0197783095981135
234,3.858,0.0231754496021173
235,3.866,0.0122618029750815
236,3.873,0.0224318236799811
237,3.881,0.00850087475017646
238,3.888,0.0322701551246472
239,3.896,0.0233359444054561
240,3.903,0.00823873323805649
241,3.911,0.0233947925000136
242,3.918,0.0287713684118622
243,3.926,0.00184034041161781
244,3.933,0.0365125677595685
245,3.941,0.0283380324428475
246,3.948,0.0222980780105321
247,3.956,0.0224211240264251
248,3.963,0.0369940521695848
249,3.971,0.0747531295684177
250,3.979,0.0710349999577364
251,3.986,0.0217042472381787
252,3.994,0.0327462897078855
253,4.001,0.0134280652126765
254,4.009,0.0199976524960098
255,4.016,0.0390162866916532
256,4.024,0.0261820522513302
257,4.031,0.0157231409004208
258,4.039,0.0305742600360343
259,4.046,0.00546217314029589
260,4.054,0.017766774729601
261,4.061,0.0139362987565826
262,4.069,0.0227849122473263
263,4.077,0.0273001660479235
264,4.084,0.0277442016704941
265,4.092,0.0313499849188383
266,4.099,0.041118768615391
267,4.107,0.0509410505797233
268,4.114,0.0245771042179425
269,4.122,0.0280116930093921
270,4.129,0.0113148836353828
271,4.137,0.015701741593309
272,4.144,0.0237799800280267
273,4.152,0.0379088725486157
274,4.159,0.0209392220089306
275,4.167,0.0301195247599078
276,4.174,0.0269149785199105
277,4.182,0.0221215337268595
278,4.190,0
279,4.197,0.0259948083141016
280,4.205,0.0218700918682954
281,4.212,0.0227902620741043
282,4.220,0.0264548934170061
283,4.227,0.0263639463617808
284,4.235,0.0286108736085234
285,4.242,0.0206556811896988
286,4.250,0.0266260878739007
287,4.257,0.0210194694106
288,4.265,0.036319973995562
289,4.272,0.00874696678196257
290,4.280,0.0103412151617943
291,4.288,0.0289746618294246
292,4.295,0.0125185946604235
293,4.303,0.0117535694311754
294,4.310,0.0166486609330076
295,4.318,0.0149848648050625
296,4.325,0.0210034199302661
297,4.333,0.0216935475846228
298,4.340,0.026331847401113
299,4.348,0.0217737949862921
300,4.355,0.0320989606677525
301,4.363,0.0317672714075191
302,4.370,0.0174350854693676
303,4.378,0.0224478731603149
304,4.385,0.0132622205825598
305,4.393,0.0214956039938383
306,4.401,0.0141770409615907
307,4.408,0.0217844946398481
308,4.416,0.0921989146913412
309,4.423,0.147221883102647
310,4.431,0.0615658065607494
311,4.438,0.0320882610141966
312,4.446,0.0287018206637487
313,4.453,0.0314890804150652
314,4.461,0.0232289478698969
315,4.468,0.019462669818214
316,4.476,0.0105980068471363
317,4.483,0.0126523403298725
318,4.491,0.0194091715504344
319,4.498,0.0364216207043432
320,4.506,0.0236729834924675
321,4.514,0.0194466203378801
322,4.521,0.0221696821678611
323,4.529,0.0193717227629887
324,4.536,0.0217149468917346
325,4.544,0.0280705411039496
326,4.551,0.00928194945975844
327,4.559,0.018034266068499
328,4.566,0.0236890329728014
329,4.574,0.0193717227629887
330,4.581,0.023999322925923
331,4.589,0.0314195326669518
332,4.596,0.0224532229870929
333,4.604,0.021404656938613
334,4.612,0.0274767103315962
335,4.619,0.0169268519254615
336,4.627,0.0153326035456298
337,4.634,0.0330512298342292
338,4.642,0.0221215337268595
339,4.649,0.0317940205414089
340,4.657,0.0274446113709284
341,4.664,0.0169108024451276
342,4.672,0.0141609914812568
343,4.679,0.0209552714892644
344,4.687,0.0224478731603149
345,4.694,0.0195482670466613
346,4.702,0.00960828889321393
347,4.709,0.0242293654773752
348,4.717,0.0164614169957791
349,4.725,0.0363360234758959
350,4.732,0.0113951310370522
351,4.740,0.00906795638864009
352,4.747,0.0151507094351792
353,4.755,0.00793379311171284
354,4.762,0.0186976445889659
355,4.770,0.0117589192579533
356,4.777,0.00875231660874053
357,4.785,0.0277923501114957
358,4.792,0.0188741888726385
359,4.800,0.00384117562657439
360,4.807,0.0192272774399838
361,4.815,0.00401771991024703
362,4.823,0.0176972269814876
363,4.830,0.0121227074788545
364,4.838,0.040075552393689
365,4.845,0.0351002134901874
366,4.853,0.0376627805168296
367,4.860,0.0909096064378531
368,4.868,0.266041535841111
369,4.875,0.235750816624309
370,4.883,0.125362490887908
371,4.890,0.0985277597696664
372,4.898,0.0897700933341479
373,4.905,0.0748868752378667
374,4.913,0.0637859846736023
375,4.920,0.0519307685336457
376,4.928,0.061228767473738
377,4.936,0.0440023252487108
378,4.943,0.0380212189109529
379,4.951,0.0312269389029453
380,4.958,0.0342014425914903
381,4.966,0.0472978185439334
382,4.973,0.0321578087623101
383,4.981,0.0228972586096635
384,4.988,0.0236462343585777
385,4.996,0.0299108815155674
386,5.003,0.0221322333804154
387,5.011,0.0274446113709284
388,5.018,0.0313285856117265
389,5.026,0.0254170270220821
390,5.034,0.0213404590172775
391,5.041,0.0192272774399838
392,5.049,0.0190453833295332
393,5.056,0.0295952417356678
394,5.064,0.030221171468689
395,5.071,0.0273590141424811
396,5.079,0.0393319264715528
397,5.086,0.0124704462194219
398,5.094,0.0186922947621879
399,5.101,0.0254170270220821
400,5.109,0.0422047834513166
401,5.116,0.0358277899319898
402,5.124,0.01323547144867
403,5.131,0.0148511191356135
404,5.139,0.0182322096592834
405,5.147,0.0293384500503258
406,5.154,0.0206770804968106
407,5.162,0.0101700207048996
408,5.169,0.00329549329522259
409,5.177,0.00704572186657168
410,5.184,0.031264387690391
411,5.192,0.0120050112897395
412,5.199,0.0305582105557004
413,5.207,0.0155786955774159
414,5.214,0.0125934922353149
415,5.222,0.0256631190538682
416,5.229,0.018028916241721
417,5.237,0.0209178227018187
418,5.245,0.0242347153041532
419,5.252,0.0203721403704669
420,5.260,0.0258931616053204
421,5.267,0.0233573437125679
422,5.275,0.0203721403704669
423,5.282,0.0280063431826141
424,5.290,0.0171729439572476
425,5.297,0.0210569181980457
426,5.305,0.0149367163640608
427,5.312,0.025427726675638
428,5.320,0.0207252289378122
429,5.327,0.0160976287748779
430,5.335,0.0160387806803204
431,5.342,0.00887001279785562
432,5.350,0.0172852903195847
433,5.358,0.0009469193396987
434,5.365,0.0274339117173725
435,5.373,0.0332812723856814
436,5.380,0.0219717385770766
437,5.388,0.0133799167716749
438,5.395,0.019580366007329
439,5.403,0.0286376227424132
440,5.410,0.0257647657626494
441,5.418,0.0333989685747965
442,5.425,0.0225923184833198
443,5.433,0.0135243620946797
444,5.440,0.0279260957809447
445,5.448,0.0163704699405538
446,5.455,0.0213618583243893
447,5.463,0.0255614723450869
448,5.471,0.0341853931111565
449,5.478,0.0395084707552254
450,5.486,0.0216186500097313
451,5.493,0.0184408529036238
452,5.501,0.0433549962085778
453,5.508,0.0215758513955077
454,5.516,0.0350734643562976
455,5.523,0.033725308008252
456,5.531,0.0167128588543432
457,5.538,0.0223034278373101
458,5.546,0.0236890329728014
459,5.553,0.0235659869569083
460,5.561,0.0134815634804561
461,5.569,0.0215491022616179
462,5.576,0.0200137019763437
463,5.584,0.0124008984713084
464,5.591,0.0206770804968106
465,5.599,0.0139148994494707
466,5.606,0.0189597861010858
467,5.614,0.0248873941710641
468,5.621,0.0271985193391423
469,5.629,0.0253153803133008
470,5.636,0.0243952101074919
471,5.644,0.0274339117173725
472,5.651,0.0309540977372694
473,5.659,0.0224478731603149
474,5.666,0.0296594396570033
475,5.674,0.027760251150828
476,5.682,0.0258771121249865
477,5.689,0.0351269626240772
478,5.697,0.0245931536982764
479,5.704,0.0249141433049539
480,5.712,0.0237157821066912
481,5.719,0.0456768210302119
482,5.727,0.0568258600354779
483,5.734,0.0428788616253394
484,5.742,0.0550871663326413
485,5.749,0.0260162076212134
486,5.757,0.0209178227018187
487,5.764,0.0367800590984665
488,5.772,0.0253635287543025
489,5.780,0.0240635208472585
490,5.787,0.0249890408798454
491,5.795,0.0305742600360343
492,5.802,0.0218219434272938
493,5.810,0.0201581472993486
494,5.817,0.0287767182386402
495,5.825,0.0182322096592834
496,5.832,0.0203988895043567
497,5.840,0.0191523798650923
498,5.847,0.0163062720192183
499,5.855,0.0124276476051982
500,5.862,0.00810498756860752
501,5.870,0.0357261432232086
502,5.877,0.0299536801297911
503,5.885,0.0291993545540989
504,5.893,0.00231112516807818
505,5.900,0.0217042472381787
506,5.908,0.027364363969259
507,5.915,0.0162955723656624
508,5.923,0.0287767182386402
509,5.930,0.0303442174845821
510,5.938,0.0303656167916939
511,5.945,0.0265672397793432
512,5.953,0.0186173971872965
513,5.960,0.0314302323205077
514,5.968,0.0251762848170739
515,5.975,0.0188260404316369
516,5.983,0.0217523956791803
517,5.991,0.0303228181774702
518,5.998,0.0222017811285288
519,6.006,0.0308257018945984
520,6.013,0.0148939177498372
521,6.021,0.0448101490921825
522,6.028,0.0345759304659474
523,6.036,0.0357528923570984
524,6.043,0.0474850624811619
525,6.051,0.0357047439160967
526,6.058,0.0319438156911917
527,6.066,0.0238334782958063
528,6.073,0.0288569656403095
529,6.081,0.019847857346227
530,6.088,0.0405088883627037
531,6.096,0.0387380956991994
532,6.104,0.04591756323522
533,6.111,0.0314141828401738
534,6.119,0.0328639858970006
535,6.126,0.0582061153441913
536,6.134,0.0847626554699785
537,6.141,0.0839387821461729
538,6.149,0.074581935111523
539,6.156,0.0863462041962543
540,6.164,0.0754860558369981
541,6.171,0.0642674690836186
542,6.179,0.0538727556540447
543,6.186,0.0647382538400789
544,6.194,0.0459657116762216
545,6.201,0.0504167675554833
546,6.209,0.0525138996524432
547,6.217,0.0506789090676033
548,6.224,0.0339607003864822
549,6.232,0.0427825647433362
550,6.239,0.054873173261523
551,6.247,0.0436706359884773
552,6.254,0.0300125282243486
553,6.262,0.0348327221512895
554,6.269,0.0434940917048047
555,6.277,0.0294614960662189
556,6.284,0.03813356527329
557,6.292,0.0327730388417753
558,6.299,0.0232824461376765
559,6.307,0.0375129853670468
560,6.315,0.0394924212748915
561,6.322,0.0121280573056325
562,6.330,0.0262141512119979
563,6.337,0.0149420661908388
564,6.345,0.0334899156300218
565,6.352,0.0589069426521039
566,6.360,0.0264923422044518
567,6.367,0.0295096445072205
568,6.375,0.0393907745661103
569,6.382,0.0209017732214849
570,6.390,0.0167128588543432
571,6.397,0.0270915228035831
572,6.405,0.0307936029339306
573,6.412,0.0473780659456027
574,6.420,0.0334738661496879
575,6.428,0.0299376306494572
576,6.435,0.041771447482302
577,6.443,0.0333829190944626
578,6.450,0.0275302085993758
579,6.458,0.0226190676172096
580,6.465,0.0246038533518323
581,6.473,0.0381175157929561
582,6.480,0.0315479285096228
583,6.488,0.0259841086605457
584,6.495,0.0339553505597042
585,6.503,0.0464097472987922
586,6.510,0.021404656938613
587,6.518,0.0253902778881923
588,6.526,0.0218112437737379
589,6.533,0.0268186816379072
590,6.541,0.0212227628281624
591,6.548,0.0340623470952634
592,6.556,0.0302960690435804
593,6.563,0.0442644667608308
594,6.571,0.0306705569180376
595,6.578,0.0326285935187705
596,6.586,0.0190935317705348
597,6.593,0.0198746064801168
598,6.601,0.0224211240264251
599,6.608,0.0390858344397667
600,6.616,0.0377002293042754
601,6.623,0.0359454861211049
602,6.631,0.0163597702869979
603,6.639,0.0277709508043839
604,6.646,0.0294293971055511
605,6.654,0.0377804767059447
606,6.661,0.0269149785199105
607,6.669,0.0290014109633144
608,6.676,0.025807564376873
609,6.684,0.0277870002847178
610,6.691,0.028792767718974
611,6.699,0.0300125282243486
612,6.706,0.0278030497650517
613,6.714,0.032430649927986
614,6.721,0.0179861176274973
615,6.729,0.0243417118397123
616,6.737,0.0251388360296282
617,6.744,0.0282898840018459
618,6.752,0.0206931299771445
619,6.759,0.0385562015887488
620,6.767,0.039305177337663
621,6.774,0.0403109447719192
622,6.782,0.0249943907066233
623,6.789,0.0379784202967292
624,6.797,0.0261232041567726
625,6.804,0.0313820838795061
626,6.812,0.0187404432031895
627,6.819,0.0316870240058497
628,6.827,0.024384510453936
629,6.834,0.0198853061336727
630,6.842,0.0343351882609393
631,6.850,0.0177935238634908
632,6.857,0.0358277899319898
633,6.865,0.0324894980225435
634,6.872,0.0243738108003801
635,6.880,0.0247108498873915
636,6.887,0.0448101490921825
637,6.895,0.0366730625629073
638,6.902,0.0274874099851521
639,6.910,0.0308043025874865
640,6.917,0.0482768368442998
641,6.925,0.0315586281631787
642,6.932,0.0492558551446663
643,6.940,0.0330244807003394
644,6.947,0.0247429488480592
645,6.955,0.0277923501114957
646,6.963,0.0298787825548997
647,6.970,0.0349932169546282
648,6.978,0.0260322571015473
649,6.985,0.023737181413803
650,6.993,0.0436492366813655
651,7.000,0.0523106062348807
652,7.008,0.0522945567545468
653,7.015,0.0689432176875545
654,7.023,0.128722182104466
655,7.030,0.177261160460885
656,7.038,0.192823806557967
657,7.045,0.11751964483142
658,7.053,0.0917227801081029
659,7.061,0.0853350869352201
660,7.068,0.0470356770318134
661,7.076,0.0559163894832249
662,7.083,0.046564892275353
663,7.091,0.060966625961618
664,7.098,0.0557879936405539
665,7.106,0.0397010645192319
666,7.113,0.0447673504779589
667,7.121,0.0490846606877716
668,7.128,0.0468912317088085
669,7.136,0.0587838966362108
670,7.143,0.0397599126137895
671,7.151,0.0586715502738737
672,7.158,0.107724112000978
673,7.166,0.135227571466463
674,7.174,0.131723434926901
675,7.181,0.0790704397782304
676,7.189,0.0753523101675491
677,7.196,0.063695037618377
678,7.204,0.0567402628070306
679,7.211,0.0705214165870523
680,7.219,0.0893474570186892
681,7.226,0.166229817644734
682,7.234,0.241432332662501
683,7.241,0.255475627954642
684,7.249,0.186446813038641
685,7.256,0.147596370977104
686,7.264,0.114882180229886
687,7.272,0.0943548948828586
688,7.279,0.0909684545324107
689,7.287,0.0895828493969194
690,7.294,0.0847894046038683
691,7.302,0.0655246783764389
692,7.309,0.067579011859175
693,7.317,0.0692321083335643
694,7.324,0.0621756868134367
