#"+EI TIC Scan END-MEOH2.d "
#Point,X(Minutes),Y(Counts)
0,2.095,0.166757175851713
1,2.102,0.17426834773847
2,2.110,0.163099732398144
3,2.117,0.173875777779232
4,2.125,0.166030921427123
5,2.132,0.149778525114663
6,2.140,0.12275662625377
7,2.147,0.137563056549703
8,2.155,0.146232309816212
9,2.163,0.142555237864681
10,2.170,0.126852439495155
11,2.178,0.129672400369016
12,2.185,0.115598767330328
13,2.193,0.116881162530506
14,2.200,0.12367916565798
15,2.208,0.123489423511015
16,2.215,0.0938242202579185
17,2.223,0.0965133244786998
18,2.230,0.120905004612697
19,2.238,0.114421057452614
20,2.245,0.0995688273281034
21,2.253,0.101983132577418
22,2.260,0.0873991585917207
23,2.268,0.115579138832366
24,2.276,0.100648394716008
25,2.283,0.0981032328136143
26,2.291,0.0897218641838798
27,2.298,0.0949037876458234
28,2.306,0.189925346279418
29,2.313,0.275590654217837
30,2.321,0.238780677706606
31,2.328,0.159429203279268
32,2.336,0.122933282735427
33,2.343,0.0982733464626175
34,2.351,0.0937784204293407
35,2.358,0.0905920609268577
36,2.366,0.0894405223797591
37,2.373,0.0760277154391222
38,2.381,0.0618232257473551
39,2.389,0.101335392144675
40,2.396,0.173829977950654
41,2.404,0.250008178540817
42,2.411,0.197685145807026
43,2.419,0.0986135737606239
44,2.426,0.0616596549310058
45,2.434,0.0774409672923796
46,2.441,0.0721609013406264
47,2.449,0.0748107485654839
48,2.456,0.0676725181400035
49,2.464,0.0798487297090402
50,2.471,0.0623401095270186
51,2.479,0.0606520587022946
52,2.487,0.0839510857830789
53,2.494,0.078186850214932
54,2.502,0.0800711860192752
55,2.509,0.0732862685571091
56,2.517,0.0489665595823056
57,2.524,0.0727628419447916
58,2.532,0.0629943927924155
59,2.539,0.0714542754139977
60,2.547,0.0623270238617107
61,2.554,0.0474747937372006
62,2.562,0.0633084487598061
63,2.569,0.0597884047919706
64,2.577,0.0654806692009238
65,2.584,0.0663966657724795
66,2.592,0.0666583790786383
67,2.600,0.0785925058394781
68,2.607,0.0567001877792972
69,2.615,0.0529838588318427
70,2.622,0.0659648388173176
71,2.630,0.0431696098508888
72,2.637,0.0508181812233788
73,2.645,0.0502882117784073
74,2.652,0.0670705775358384
75,2.660,0.0653105555519206
76,2.667,0.0623073953637488
77,2.675,0.0455512009369336
78,2.682,0.0585976092489482
79,2.690,0.0464148548472576
80,2.698,0.0682744587441687
81,2.705,0.0604754022206374
82,2.713,0.052918430505303
83,2.720,0.0685230863850195
84,2.728,0.0797113302233069
85,2.735,0.077984022402659
86,2.743,0.0685427148829814
87,2.750,0.07055136450775
88,2.758,0.0621045675514757
89,2.765,0.0527221455256839
90,2.773,0.106805200243393
91,2.780,0.0944850463559693
92,2.788,0.0530100301624585
93,2.795,0.0700868233893182
94,2.803,0.0788869333089068
95,2.811,0.105005921263552
96,2.818,0.0710355341241437
97,2.826,0.0699494239035848
98,2.833,0.0616073122697741
99,2.841,0.0604950307185993
100,2.848,0.0460942560472131
101,2.856,0.0644338159762888
102,2.863,0.0594089204980404
103,2.871,0.0486132466189912
104,2.878,0.0482861049862928
105,2.886,0.0537886272482809
106,2.893,0.0513350650030424
107,2.901,0.0579236974855894
108,2.909,0.0806076982969006
109,2.916,0.0749612337165252
110,2.924,0.0501966121212518
111,2.931,0.0652058702294571
112,2.939,0.0524146323909473
113,2.946,0.0563599604812908
114,2.954,0.565392340960095
115,2.961,10.4946904913013
116,2.969,48.2132505446908
117,2.976,100
118,2.984,54.0552345932648
119,2.991,0.720143418891775
120,2.999,0.151545089931235
121,3.006,0.135901177055594
122,3.014,0.0991631717035573
123,3.022,0.108153023770111
124,3.029,0.116370821583496
125,3.037,0.11685499119989
126,3.044,0.124863418368348
127,3.052,0.0922670260862738
128,3.059,0.0970105797604015
129,3.067,0.131824992312172
130,3.074,0.103134671124517
131,3.082,0.0814517237092627
132,3.089,0.10028853892004
133,3.097,0.0853381663057204
134,3.104,0.079462702582456
135,3.112,0.0961665543480394
136,3.119,0.105660204528949
137,3.127,0.154384679303057
138,3.135,0.136719031137341
139,3.142,0.105692918692219
140,3.150,0.106281773631076
141,3.157,0.211673722021212
142,3.165,0.228011175158173
143,3.172,0.151826431735355
144,3.180,0.128383462336184
145,3.187,0.103494526920485
146,3.195,0.0970890937522491
147,3.202,0.0764006569003984
148,3.210,0.084566112052552
149,3.217,0.0715589607364612
150,3.225,0.0584798382611768
151,3.233,0.0738882091612743
152,3.240,0.0710289912914897
153,3.248,0.0780821648924685
154,3.255,0.31073875123496
155,3.263,0.863791309809669
156,3.270,0.694619828708641
157,3.278,0.152120859204784
158,3.285,0.0743592931123601
159,3.293,0.0578190121631259
160,3.300,0.0729852982550265
161,3.308,0.0796066449008434
162,3.315,0.0660368099765112
163,3.323,0.0721151015120486
164,3.330,0.0388055404706914
165,3.338,0.0468924816309973
166,3.346,0.050137726627366
167,3.353,0.0387662834747676
168,3.361,0.045688600422667
169,3.368,0.0496535570109723
170,3.376,0.0496862711742422
171,3.383,0.0416843868384378
172,3.391,0.0404543342994916
173,3.398,0.0498825561538613
174,3.406,0.0205706658640792
175,3.413,0.0407749330995361
176,3.421,0.0503863542682169
177,3.428,0.0366071486989577
178,3.436,0.0533044576318871
179,3.444,0.068411858229902
180,3.451,0.0416189585118981
181,3.459,0.0413114453771616
182,3.466,0.0679734884420861
183,3.474,0.0429994962018856
184,3.481,0.0441248634183683
185,3.489,0.119701123404367
186,3.496,0.0992155143647891
187,3.504,0.0460877132145591
188,3.511,0.0236065402155209
189,3.519,0.0434902086509333
190,3.526,0.0362930927315672
191,3.534,0.0354359816538972
192,3.541,0.0237701110318701
193,3.549,0.0305157714981124
194,3.557,0.0322757934820301
195,3.564,0.0515640641459313
196,3.572,0.0258572746484863
197,3.579,0.0409712180791552
198,3.587,0.0356584379641322
199,3.594,0.0424302697609903
200,3.602,0.0284613220447661
201,3.609,0.0463494265207179
202,3.617,0.0512696366765027
203,3.624,0.0395645090585518
204,3.632,0.0301035730409123
205,3.639,0.0378437440705579
206,3.647,0.0369473759969641
207,3.655,0.0417759864955934
208,3.662,0.050366725770255
209,3.670,0.0172730782064787
210,3.677,0.0150616007694371
211,3.685,0.0304896001674965
212,3.692,0.0301035730409123
213,3.700,0.0436603222999365
214,3.707,0.0496012143497406
215,3.715,0.0387073979808818
216,3.722,0.0392700815891232
217,3.730,0.0426003834099935
218,3.737,0.038040029050177
219,3.745,0.0404150773035678
220,3.752,0.0201584674068791
221,3.760,0.0377521444134023
222,3.768,0.0150746864347451
223,3.775,0.0248300499218131
224,3.783,0.0443931195571811
225,3.790,0.0418806718180569
226,3.798,0.0335123888536303
227,3.805,0.0429471535406539
228,3.813,0.022736343472543
229,3.820,0.0332637612127795
230,3.828,0.0404674199647996
231,3.835,0.0289782058244296
232,3.843,0.0220886030398001
233,3.850,0.0260797309587213
234,3.858,0.0279248097671406
235,3.866,0.035920151270291
236,3.873,0.0245225367870766
237,3.881,0.0350957543558908
238,3.888,0.0342779002741447
239,3.896,0.0153298569082499
240,3.903,0.0294885467714392
241,3.911,0.0160233971695706
242,3.918,0.0304176290083029
243,3.926,0.0200668677497236
244,3.933,0.0312812829186268
245,3.941,0.0151335719286308
246,3.948,0.0333095610413572
247,3.956,0.0375624022664372
248,3.963,0.0633804199189997
249,3.971,0.111928238211451
250,3.979,0.065022670915146
251,3.986,0.0146755736428529
252,3.994,0.028677235522347
253,4.001,0.0366202343642657
254,4.009,0.0503863542682169
255,4.016,0.0334273320291287
256,4.024,0.0345003565843796
257,4.031,0.0390410824462343
258,4.039,0.0387466549768057
259,4.046,0.0197070119537553
260,4.054,0.0372090893031229
261,4.061,0.0303129436858393
262,4.069,0.0216960330805619
263,4.076,0.0250197920687783
264,4.084,0.0684380295605179
265,4.092,0.373536859047756
266,4.099,0.704008793567087
267,4.107,0.38664869568631
268,4.114,0.0930979658333279
269,4.122,0.039309338585047
270,4.129,0.0212118634641682
271,4.137,0.0611165998207264
272,4.144,0.0248300499218131
273,4.152,0.0277481532854834
274,4.159,0.0172861638717867
275,4.167,0.0390672537768501
276,4.174,0.0362407500703354
277,4.182,0.0307643991389632
278,4.190,0.0313663397431284
279,4.197,0.0245945079462703
280,4.205,0.0373661172868181
281,4.212,0.0232466844195526
282,4.220,0.0284351507141502
283,4.227,0.0297175459143281
284,4.235,0.032930076747427
285,4.242,0.0331983328862398
286,4.250,0.0285856358651915
287,4.257,0.0292595476285503
288,4.265,0.039525252062628
289,4.272,0.0292857189591662
290,4.280,0.0300970302082584
291,4.287,0.0284024365508803
292,4.295,0.0179600756351455
293,4.303,0.0430060390345396
294,4.310,0.0214866624356349
295,4.318,0.0337479308291732
296,4.325,0.0322365364861063
297,4.333,0.0327468774331159
298,4.340,0.0304045433429949
299,4.348,0.0230961992685113
300,4.355,0.022101688705108
301,4.363,0.0309148842900045
302,4.370,0.0356060953029004
303,4.378,0.0321383939962968
304,4.385,0.0178226761494121
305,4.393,0.039525252062628
306,4.401,0.0391326821033898
307,4.408,0.0486786749455309
308,4.416,0.148182073947095
309,4.423,0.170826817762482
310,4.431,0.0604492308900215
311,4.438,0.0500068699742867
312,4.446,0.0176852766636788
313,4.453,0.0326291064453444
314,4.461,0.0294100327795916
315,4.468,0.0221998311949175
316,4.476,0.0375035167725515
317,4.483,0.0197331832843711
318,4.491,0.025706789497445
319,4.498,0.0173581350309803
320,4.506,0.0362734642336053
321,4.514,0.0366071486989577
322,4.521,0.0298091455714837
323,4.529,0.0142502895203449
324,4.536,0.0270218988608928
325,4.544,0.0253273052035148
326,4.551,0.0276696392936358
327,4.559,0.00936933636048391
328,4.566,0.018274131602536
329,4.574,0.0359855795968307
330,4.581,0.0247122789340417
331,4.589,0.0311635119308553
332,4.596,0.0275191541425945
333,4.604,0.0306924279797696
334,4.612,0.0298614882327155
335,4.619,0.0275845824691342
336,4.627,0.0368165193438847
337,4.634,0.0234887692277495
338,4.642,0.0115480996342557
339,4.649,0.0319159376860618
340,4.657,0.0304110861756489
341,4.664,0.0239075105176035
342,4.672,0.0190985285169361
343,4.679,0.0198444114394886
344,4.687,0.0185554734066567
345,4.694,0.0329039054168112
346,4.702,0.0221736598643016
347,4.709,0.0315953388860173
348,4.717,0.0290501769836233
349,4.725,0.0232924842481304
350,4.732,0.0245029082891147
351,4.740,0.0441772060796001
352,4.747,0.0195368983047521
353,4.755,0.0166187949410818
354,4.762,0.0353247534987798
355,4.770,0.0250067064034703
356,4.777,0.0188237295454694
357,4.785,0.041854500487441
358,4.792,0.0331132760617382
359,4.800,0.0214932052682889
360,4.807,0.0329562480780429
361,4.815,0.0096899351605284
362,4.822,0.0256479040035593
363,4.830,0.0279902380936803
364,4.838,0.11561839582829
365,4.845,0.115068797885356
366,4.853,0.0552673074280779
367,4.860,0.0199032969333743
368,4.868,0.0352331538416242
369,4.875,0.0251441058892037
370,4.883,0.0281080090814517
371,4.890,0.00930390803394422
372,4.898,0.0275780396364802
373,4.905,0.0345919562415352
374,4.913,0.032936619580081
375,4.920,0.0283697223876105
376,4.928,0.0298222312367917
377,4.936,0
378,4.943,0.0209894071539332
379,4.951,0.0116985847852969
380,4.958,0.0134913209324845
381,4.966,0.0132296076263257
382,4.973,0.0113845288179064
383,4.981,0.0121827544016907
384,4.988,0.0212118634641682
385,4.996,0.0271134985180484
386,5.003,0.0189349577005869
387,5.011,0.012738895177278
388,5.018,0.029743717244944
389,5.026,0.0158074836919896
390,5.033,0.0201126675783013
391,5.041,0.0217418329091397
392,5.049,0.0634654767435013
393,5.056,0.111326297607286
394,5.064,0.175354457959029
395,5.071,0.0798487297090402
396,5.079,0.0646170152905999
397,5.086,0.0220035462152985
398,5.094,0.0256348183382514
399,5.101,0.0281538089100295
400,5.109,0.0423779270997586
401,5.116,0.0305157714981124
402,5.124,0.0370455184867737
403,5.131,0.0199490967619521
404,5.139,0.0366071486989577
405,5.147,0.0234756835624415
406,5.154,0.0192948134965552
407,5.162,0.0317850810329824
408,5.169,0.00157027983695261
409,5.177,0.0167692800921231
410,5.184,0.0245879651136163
411,5.192,0.0202435242313807
412,5.199,0.0200079822558378
413,5.207,0.0145970596510053
414,5.214,0.0260208454648355
415,5.222,0.0206360941906189
416,5.229,0.0341470436210653
417,5.237,0.0256217326729434
418,5.244,0.0183722740923455
419,5.252,0.0256151898402895
420,5.260,0.00647086149477555
421,5.267,0.022736343472543
422,5.275,0.0180189611290312
423,5.282,0.0147802589653164
424,5.290,0.0153952852347895
425,5.297,0.0199163825986823
426,5.305,0.00624840518454059
427,5.312,0.0334535033597446
428,5.320,0.0112733006627889
429,5.327,0.00781868502149321
430,5.335,0.0251375630565497
431,5.342,0.0146755736428529
432,5.350,0.0095198215115252
433,5.358,0.0227232578072351
434,5.365,0.00552215075995001
435,5.373,0.0198705827701045
436,5.380,0.0141063472019576
437,5.388,0.0260535596281054
438,5.395,0.000981424898095381
439,5.403,0.0260143026321816
440,5.410,0.0262629302730324
441,5.418,0.00259750456362578
442,5.425,0.00972264932379825
443,5.433,0.0107891310463952
444,5.440,0.0252553340443211
445,5.448,0.0209108931620856
446,5.455,0.029318433122436
447,5.463,0.0168477940839707
448,5.471,0.0390868822748121
449,5.478,0.0210940924763967
450,5.486,0.0179011901412598
451,5.493,0.015938340345069
452,5.501,0.0185751019046186
453,5.508,0.0331067332290842
454,5.516,0.027407925987477
455,5.523,0.0205706658640792
456,5.531,0.0233382840767082
457,5.538,0.0135698349243321
458,5.546,0.0150158009408593
459,5.553,0.0226054868194636
460,5.561,0.0282912083957629
461,5.568,0.0234102552359018
462,5.576,0.0195238126394441
463,5.584,0.00177965048187962
464,5.591,0.0270938700200865
465,5.599,0.00272181838405119
466,5.606,0.00881973841755049
467,5.614,0.0309672269512363
468,5.621,0.0154868848919451
469,5.629,0.0270088131955849
470,5.636,0.0225727726561938
471,5.644,0.00398458508626725
472,5.651,0.0192620993332854
473,5.659,0.0162458534798055
474,5.666,0.0196284979619076
475,5.674,0.0175936770065232
476,5.682,0.0147540876347006
477,5.689,0.029318433122436
478,5.697,0.00685034578870576
479,5.704,0.0153429425735578
480,5.712,0.0244767369584988
481,5.719,0.0341077866251415
482,5.727,0.0387859119727295
483,5.734,0.0250067064034703
484,5.742,0.0326160207800365
485,5.749,0.014662487977545
486,5.757,0.0271069556853944
487,5.764,0.02507213473001
488,5.772,0.0187713868842377
489,5.779,0.0440790635897906
490,5.787,0.0300708588776425
491,5.795,0.0269499277016992
492,5.802,0.0189938431944726
493,5.810,0.0171749357166692
494,5.817,0.0166580519370056
495,5.825,0.0181629034474185
496,5.832,0.0115938994628334
497,5.840,0.0253207623708608
498,5.847,0.0343040716047606
499,5.855,0.0420049856384823
500,5.862,0.0361426075805259
501,5.870,0.0260928166240292
502,5.877,0.020191181570149
503,5.885,0.0141128900346116
504,5.893,0.00975536348706809
505,5.900,0.0245552509503464
506,5.908,0.0670902060338003
507,5.915,0.0691642839851085
508,5.923,0.0568637585956464
509,5.930,0.0246010507789242
510,5.938,0.0235280262236733
511,5.945,0.0329758765760048
512,5.953,0.029527803767363
513,5.960,0.0312681972533188
514,5.968,0.0237046827053304
515,5.975,0.0174824488514057
516,5.983,0.0198902112680664
517,5.990,0.0257460464933688
518,5.998,0.0126996381813542
519,6.006,0.0228214002970446
520,6.013,0.0226054868194636
521,6.021,0.0230242281093176
522,6.028,0.0227756004684668
523,6.036,0.00986659164218557
524,6.043,0.0257460464933688
525,6.051,0.0101348477809983
526,6.058,0.0285136647059978
527,6.066,0.0516622066357409
528,6.073,0.0570273294119956
529,6.081,0.0876019864039937
530,6.088,0.0798683582070021
531,6.096,0.0564450173057924
532,6.104,0.0582966389468657
533,6.111,0.0344414710904939
534,6.119,0.0427704970589967
535,6.126,0.0533240861298491
536,6.134,0.0620718533882059
537,6.141,0.0532848291339252
538,6.149,0.0529707731665347
539,6.156,0.0467354536473021
540,6.164,0.0358350944457894
541,6.171,0.0555159350689287
542,6.179,0.0257329608280609
543,6.186,0.023384083905286
544,6.194,0.0267994425506579
545,6.201,0.0345854134088812
546,6.209,0.0270022703629309
547,6.217,0.0342451861108748
548,6.224,0.0383998848461453
549,6.232,0.0479066206923625
550,6.239,0.0373137746255864
551,6.247,0.0369212046663482
552,6.254,0.0520220624317092
553,6.262,0.0567067306119511
554,6.269,0.028899691832582
555,6.277,0.042914439377384
556,6.284,0.0123855822139637
557,6.292,0.0330805618984683
558,6.299,0.0178684759779899
559,6.307,0.0364566635479164
560,6.315,0.0424106412630284
561,6.322,0.01742356335752
562,6.330,0.0334011606985128
563,6.337,0.0331067332290842
564,6.345,0.0211726064682444
565,6.352,0.0131314651365162
566,6.360,0.035494867147783
567,6.367,0.0201977244028029
568,6.375,0.0180843894555709
569,6.382,0.0231485419297431
570,6.390,0.0319421090166777
571,6.397,0.0293707757836678
572,6.405,0.0251113917259338
573,6.412,0.0205117803701935
574,6.420,0.025503961685172
575,6.428,0.0287884636774645
576,6.435,0.0173450493656724
577,6.443,0.0292660904612043
578,6.450,0.0256544468362133
579,6.458,0.0296063177592107
580,6.465,0.0331983328862398
581,6.473,0.022108231537762
582,6.480,0.0404870484627615
583,6.488,0.100491366732313
584,6.495,0.0608810578451835
585,6.503,0.0351284685191607
586,6.510,0.0452109736389272
587,6.518,0.0374773454419356
588,6.525,0.0321907366575285
589,6.533,0.0375100596052055
590,6.541,0.0401991638259868
591,6.548,0.031870137857484
592,6.556,0.0419788143078664
593,6.563,0.0237635681992162
594,6.571,0.014453117332618
595,6.578,0.0345068994170336
596,6.586,0.0172599925411708
597,6.593,0.046113884545175
598,6.601,0.0157551410307579
599,6.608,0.0239402246808733
600,6.616,0.0374119171153959
601,6.623,0.0321711081595666
602,6.631,0.0392635387564692
603,6.639,0.0626410798291012
604,6.646,0.0498171278273216
605,6.654,0.0561833039996336
606,6.661,0.0446679185286478
607,6.669,0.0305026858328045
608,6.676,0.0102460759361158
609,6.684,0.0269041278731214
610,6.691,0.00183199314311138
611,6.699,0.0265508149098071
612,6.706,0.0162327678144976
613,6.714,0.0158663691858753
614,6.721,0.0311635119308553
615,6.729,0.0307382278083473
616,6.736,0.0546784524892207
617,6.744,0.0798552725416942
618,6.752,0.0351480970171226
619,6.759,0.0304110861756489
620,6.767,0.0326421921106524
621,6.774,0.0144662029979259
622,6.782,0.0320402515064872
623,6.789,0.0288342635060423
624,6.797,0.0321972794901825
625,6.804,0.0340423582986018
626,6.812,0.0330347620698905
627,6.819,0.0250590490647021
628,6.827,0.0395972232218217
629,6.834,0.0270415273588547
630,6.842,0.0212184062968221
631,6.850,0.0357173234580179
632,6.857,0.0128632089977035
633,6.865,0.0378044870746341
634,6.872,0.0191835853414377
635,6.880,0.019124699847552
636,6.887,0.022311059350035
637,6.895,0.0175805913412153
638,6.902,0.0534811141135443
639,6.910,0.080542269970361
640,6.917,0.0562552751588273
641,6.925,0.0397935082014407
642,6.932,0.0211268066396666
643,6.940,0.0292791761265122
644,6.947,0.0414030450343172
645,6.955,0.0197855259456029
646,6.963,0.0268321567139277
647,6.970,0.0237831966971781
648,6.978,0.0253403908688227
649,6.985,0.0226840008113112
650,6.993,0.0181301892841487
651,7.000,0.0404477914668376
652,7.008,0.031026112445122
653,7.015,0.0366856626908054
654,7.023,0.0546391954932969
655,7.030,0.0849325106811743
656,7.038,0.0489992737455754
657,7.045,0.0660498956418192
658,7.053,0.0407422189362663
659,7.061,0.037392288617434
660,7.068,0.0412656455485838
661,7.076,0.0356453522988242
662,7.083,0.0268779565425055
663,7.091,0.0258703603137943
664,7.098,0.030169001367452
665,7.106,0.0313990539063982
666,7.113,0.0253338480361688
667,7.121,0.0204136378803839
668,7.128,0.0476710787168197
669,7.136,0.0425742120793776
670,7.143,0.0160888254961103
671,7.151,0.0434378659897016
672,7.158,0.0473112229208514
673,7.166,0.0633542485883839
674,7.174,0.0512892651744646
675,7.181,0.0405590196219551
676,7.189,0.0152644285817102
677,7.196,0.0419264716466347
678,7.204,0.0358612657764052
679,7.211,0.0246861076034258
680,7.219,0.0611623996493042
681,7.226,0.0952374721111758
682,7.234,0.103527241083755
683,7.241,0.0714281040833818
684,7.249,0.0559870190200145
685,7.256,0.0559477620240907
686,7.264,0.0462381983656004
687,7.271,0.0415666158506664
688,7.279,0.0587153802367197
689,7.287,0.0309999411145061
690,7.294,0.0181890747780344
691,7.302,0.0201453817415712
692,7.309,0.0220558888765302
693,7.317,0.0367249196867292
694,7.324,0.0345723277435733
695,7.332,0.0290567198162773
