#"+EI TIC Scan IPA-PLA.d "
#Point,X(Minutes),Y(Counts)
0,2.095,0.248445725935878
1,2.102,0.235002964285816
2,2.110,0.214718150700759
3,2.117,0.213684401525395
4,2.125,0.198809676037087
5,2.132,0.205921226784337
6,2.140,0.171216215558504
7,2.147,0.173931315532709
8,2.155,0.168380444474335
9,2.162,0.16404030688594
10,2.170,0.160721851361912
11,2.178,0.160190898478068
12,2.185,0.153019012175836
13,2.193,0.146305676091469
14,2.200,0.157158031247623
15,2.208,0.138667194830707
16,2.215,0.129612839213026
17,2.223,0.128933058626892
18,2.230,0.139371109638834
19,2.238,0.117457236069254
20,2.245,0.127834951526214
21,2.253,0.109324003257637
22,2.260,0.115088059943615
23,2.268,0.10783572623474
24,2.276,0.113796879066993
25,2.283,0.104115033677497
26,2.291,0.0888984067109548
27,2.298,0.106218733361214
28,2.306,0.0967500735993212
29,2.313,0.100446631934571
30,2.321,0.0979487399583033
31,2.328,0.0958128613119291
32,2.336,0.0940309512547845
33,2.343,0.0924300478625868
34,2.351,0.0790958902114934
35,2.358,0.100764399190812
36,2.366,0.0864447608083404
37,2.373,0.0836130120945033
38,2.381,0.0795705299106877
39,2.389,0.0814851781887934
40,2.396,0.081501267670122
41,2.404,0.0950807899114769
42,2.411,0.130296642169493
43,2.419,0.188689392281385
44,2.426,0.322678570415796
45,2.434,0.182973604039393
46,2.441,0.0874101296880575
47,2.449,0.0828447393610618
48,2.456,0.0770806826750838
49,2.464,0.0764974389769214
50,2.471,0.0830016118040158
51,2.479,0.0821850706265883
52,2.487,0.074176531295268
53,2.494,0.0781627002944335
54,2.502,0.0767146469748577
55,2.509,0.0722980843501517
56,2.517,0.0695749396352828
57,2.524,0.0646555807190574
58,2.532,0.0723262409424768
59,2.539,0.0694381790439896
60,2.547,0.0696111409682722
61,2.554,0.0749528487693739
62,2.562,0.0741684865546037
63,2.569,0.0655123455998064
64,2.577,0.0608182394221817
65,2.584,0.065138265158916
66,2.592,0.0616468477106056
67,2.600,0.0659869852990007
68,2.607,0.0600539890590722
69,2.615,0.0714051181364133
70,2.622,0.0689997406777847
71,2.630,0.0715298116167101
72,2.637,0.0663007301849088
73,2.645,0.05116455062501
74,2.652,0.0652227349358913
75,2.660,0.0481719070978868
76,2.667,0.0463377062264241
77,2.675,0.0657134641164142
78,2.682,0.0568240256823519
79,2.690,0.0624835007396938
80,2.697,0.0498331460450667
81,2.705,0.060464270832952
82,2.713,0.0526246710555822
83,2.720,0.0657657549307322
84,2.728,0.0593822532136024
85,2.735,0.0567556453867053
86,2.743,0.0565907282030869
87,2.750,0.0738989877423493
88,2.758,0.0559471489499421
89,2.765,0.062073218965814
90,2.773,0.0591851570673268
91,2.780,0.071163775916484
92,2.788,0.0806766817520303
93,2.795,0.0669121304753963
94,2.803,0.0498331460450667
95,2.811,0.05952705854556
96,2.818,0.0663489986288946
97,2.826,0.0677688953561453
98,2.833,0.0539279190432004
99,2.841,0.0567395559053766
100,2.848,0.0655324574514672
101,2.856,0.0597965573578143
102,2.863,0.0616629371919342
103,2.871,0.0462451917087846
104,2.878,0.0558023436179845
105,2.886,0.0581031394479771
106,2.893,0.0699047740025195
107,2.901,0.0637264131723296
108,2.908,0.0583686158898994
109,2.916,0.0635092051743933
110,2.924,0.0723543975348018
111,2.931,0.0730221110099395
112,2.939,0.0678252085407955
113,2.946,0.0665702289971631
114,2.954,0.0539922769685149
115,2.961,0.191316000108282
116,2.969,3.2461172159743
117,2.976,22.3244892001971
118,2.984,61.1045316305728
119,2.991,100
120,2.999,14.6919047343419
121,3.006,0.161321184541403
122,3.014,0.106295158397525
123,3.022,0.0822373614409064
124,3.029,0.0845180454192382
125,3.037,0.0650216164192835
126,3.044,0.079421702208398
127,3.052,0.0892443305595202
128,3.059,0.071111485102166
129,3.067,0.0598568929127967
130,3.074,0.0729416636032965
131,3.082,0.0548611089602603
132,3.089,0.058931747736401
133,3.097,0.0647802741993542
134,3.104,0.0680424165387318
135,3.112,0.038542352522708
136,3.119,0.0487511284257171
137,3.127,0.0587949871451078
138,3.135,0.0723021067204838
139,3.142,0.0813725518194931
140,3.150,0.0411689603496051
141,3.157,0.0470134644422261
142,3.165,0.0486224125750881
143,3.172,0.0627328877002874
144,3.180,0.0552351894011507
145,3.187,0.0612969014917081
146,3.195,0.0512087966986637
147,3.202,0.0552190999198221
148,3.210,0.0477173792503533
149,3.217,0.0423032687832728
150,3.225,0.0430112059617321
151,3.233,0.0343832215992598
152,3.240,0.032726005022412
153,3.248,0.036076639509097
154,3.255,0.0487189494630598
155,3.263,0.0462089903757952
156,3.270,0.0657536878197357
157,3.278,0.0457906638612511
158,3.285,0.0336913739021292
159,3.293,0.0456096571963041
160,3.300,0.0372511716460863
161,3.308,0.0331845552402777
162,3.315,0.061059581642111
163,3.323,0.0486545915377453
164,3.330,0.0340453424913588
165,3.338,0.0287116794309215
166,3.346,0.0335546133108359
167,3.353,0.0403242625798526
168,3.361,0.0307188422266668
169,3.368,0.0333374053128996
170,3.376,0.0373235743120651
171,3.383,0.0275532367752609
172,3.391,0.0321628731759104
173,3.398,0.0350549574447297
174,3.406,0.0233900834814806
175,3.413,0.0294075494983843
176,3.421,0.0311210792598822
177,3.428,0.0242026022885759
178,3.436,0.0286795004682642
179,3.444,0.0242347812512331
180,3.451,0.0241664009555865
181,3.459,0.0350831140370548
182,3.466,0.0182213376046616
183,3.474,0.0310486765939035
184,3.481,0.0295121311270203
185,3.489,0.0584772198888675
186,3.496,0.0809904266379384
187,3.504,0.0533848990483595
188,3.511,0.0157113785173969
189,3.519,0.0302240906758117
190,3.526,0.0379430193432169
191,3.534,0.0145851148243936
192,3.541,0.0223925356391062
193,3.549,0.0193476012976649
194,3.557,0.0277221763292114
195,3.564,0.0168255750994038
196,3.572,0.0219862762355585
197,3.579,0.0244117655458479
198,3.587,0.018128823087022
199,3.594,0.0232814794825124
200,3.602,0.0311894595555289
201,3.609,0.0106874379725355
202,3.617,0.0214834799440392
203,3.624,0.0204738649906683
204,3.632,0.0153332757061744
205,3.639,0.0208921915052124
206,3.647,0.0279152501051548
207,3.654,0.0176944070911493
208,3.662,0.0197699501825412
209,3.670,0.0347291454478252
210,3.677,0.0194722947779617
211,3.685,0.0213547640934102
212,3.692,0.0152327164478705
213,3.700,0.0274848564796142
214,3.707,0.0178794361264284
215,3.715,0.0240417074752897
216,3.722,0.0262178098249855
217,3.730,0.0114396212246485
218,3.737,0.0175214451668666
219,3.745,0.0187844694511633
220,3.752,0.0220345446795444
221,3.760,0.0293110126104126
222,3.768,0.0244037208051836
223,3.775,0.0281686594360806
224,3.783,0.0174570872415521
225,3.790,0.0244157879161801
226,3.798,0.0139536026822453
227,3.805,0.0241261772522649
228,3.813,0.0219138735695797
229,3.820,0.0232935465935089
230,3.828,0.026829210115473
231,3.835,0.0154217678534818
232,3.843,0.0129801890618638
233,3.850,0.0236716494047314
234,3.858,0.0153574099281673
235,3.865,0.0159285865153333
236,3.873,0.019713636997891
237,3.881,0.00729657978252894
238,3.888,0.0208117440985693
239,3.896,0.0158280272570294
240,3.903,0.0183259192332976
241,3.911,0.0177145189428101
242,3.918,0.0187683799698346
243,3.926,0.0153936112611567
244,3.933,0.0223563343061168
245,3.941,0.013245665503786
246,3.948,0.010389782567956
247,3.956,0.0237882981443639
248,3.963,0.01579182592404
249,3.971,0.0697559463002298
250,3.979,0.0511967295876672
251,3.986,0.0244881905821589
252,3.994,0.0229999135592616
253,4.001,0.0104018496789525
254,4.009,0.0176702728691564
255,4.016,0.0190941919667392
256,4.024,0.0162905998452272
257,4.031,0.0247295328020882
258,4.039,0.0142391909758282
259,4.046,0.0349181968534364
260,4.054,0.0240698640676148
261,4.061,0.0153051191138493
262,4.069,0.0168336198400681
263,4.076,0.012855495581567
264,4.084,0.0233579045188233
265,4.092,0.0139174013492559
266,4.099,0.0324283496178326
267,4.107,0.0298339207535927
268,4.114,0.0315635399964193
269,4.122,0.0127147126199416
270,4.129,0.0303970526000944
271,4.137,0.0240618193269504
272,4.144,0.0203411267697072
273,4.152,0.0270866418167309
274,4.159,0.0198745318111772
275,4.167,0.0237199178487173
276,4.174,0.0263988164899324
277,4.182,0.032854720873041
278,4.190,0.0133341576510934
279,4.197,0.0211456008361382
280,4.205,0.0148626583773123
281,4.212,0.0213869430560675
282,4.220,0.024206624658908
283,4.227,0.0159084746636725
284,4.235,0.0138771776459343
285,4.242,0.0187804470808311
286,4.250,0.00992318760942607
287,4.257,0.0212059363911205
288,4.265,0.0175858030921811
289,4.272,0.0175294899075309
290,4.280,0.0175093780558702
291,4.287,0.0190620130040819
292,4.295,0.0109328025627969
293,4.303,0.0228671753383005
294,4.310,0.0157435574800542
295,4.318,0.00606171209055739
296,4.325,0.0166405460641247
297,4.333,0.0261454071590067
298,4.340,0.0232814794825124
299,4.348,0.0129198535068815
300,4.355,0.0237681862927031
301,4.363,0.00725635607920739
302,4.370,0.0110936973760831
303,4.378,0
304,4.385,0.0110454289320973
305,4.393,0.00572383298265638
306,4.400,0.0140420948295527
307,4.408,0.0144966226770862
308,4.416,0.0738788758906885
309,4.423,0.127774615971232
310,4.431,0.0499377276737027
311,4.438,0.0212863837977636
312,4.446,0.00980251649946142
313,4.453,0.0284059792856777
314,4.461,0.0084590448085217
315,4.468,0.0240135508829646
316,4.476,0.0154338349644782
317,4.483,0.0127348244716023
318,4.491,0.0159527207373262
319,4.498,0.0187201115258488
320,4.506,0.0104742523449313
321,4.514,0.023064271484576
322,4.521,0.0215438154990215
323,4.529,0.0117493437402244
324,4.536,0.0316278979217338
325,4.544,0.0101967087920126
326,4.551,0.0161377497726053
327,4.559,0.0156309311107538
328,4.566,0.0186678207115308
329,4.574,0.00667311238104493
330,4.581,0.0137162828326481
331,4.589,0.0283134647680381
332,4.596,0.0212662719461028
333,4.604,0.0219621420135656
334,4.611,0.0255259621278548
335,4.619,0.0123567216603798
336,4.627,0.0134709182423867
337,4.634,0.0234705308881237
338,4.642,0.0110936973760831
339,4.649,0.0184425679729301
340,4.657,0.0228913095602934
341,4.664,0.00295644219413383
342,4.672,0.00457745743799224
343,4.679,0.0117091200369028
344,4.687,0.00860385014047927
345,4.694,0.0134105826874043
346,4.702,0.0190338564117569
347,4.709,0.015192492744549
348,4.717,0.0195728540362656
349,4.725,0.00794418140600587
350,4.732,0.015168358522556
351,4.740,0.0152166269665419
352,4.747,0.0189534090051138
353,4.755,0.0129801890618638
354,4.762,0.0112586145597015
355,4.770,0.0222356631961521
356,4.777,0.0133261129104291
357,4.785,0.0169060225060469
358,4.792,0.0187160891555166
359,4.800,0.00890150554505873
360,4.807,0.00955715190919998
361,4.815,0.00573590009365285
362,4.822,0.0227827055613252
363,4.830,0.0123486769197155
364,4.838,0.0101122390150374
365,4.845,0.034282662340956
366,4.853,0.0243152286578762
367,4.860,0.0187804470808311
368,4.868,0.0110977197464153
369,4.875,0.0152126045962097
370,4.883,0.023011980670258
371,4.890,0.00826194866224611
372,4.898,0.0122239834394187
373,4.905,0.0222758868994737
374,4.913,0.0242267365105688
375,4.920,0.0148345017849872
376,4.928,0.0126785112869522
377,4.936,0.00504003002619006
378,4.943,0.031165325333536
379,4.951,0.0223482895654525
380,4.958,0.00886530421206934
381,4.966,0.00442862973570251
382,4.973,0.0130727035795033
383,4.981,0.00368449122425386
384,4.988,0.0233458374078269
385,4.996,0.0154941705194606
386,5.003,0.01698646991269
387,5.011,0.011608560778599
388,5.018,0.0078798234806914
389,5.026,0.0063553451248047
390,5.033,0.00803267355331328
391,5.041,0.0161578616242661
392,5.049,0.00297253167546245
393,5.056,0.0189654761161102
394,5.064,0.0187884918214954
395,5.071,0.0181569796793471
396,5.079,0.00967782301916462
397,5.086,0.00676160452835234
398,5.094,0.0192148630767038
399,5.101,0.00146414280090437
400,5.109,0.00587266068494611
401,5.116,0.0118297911468675
402,5.124,0.0143276831231357
403,5.131,0.0138651105349378
404,5.139,0.0104983865669242
405,5.147,0.00465388247430319
406,5.154,0.00995134420175115
407,5.162,0.0191223485590643
408,5.169,0.0103777154569596
409,5.177,0.0205140886939899
410,5.184,0.0179799953847323
411,5.192,0.00919111620897388
412,5.199,0.0159607654779905
413,5.207,0.0125497954363232
414,5.214,0.0163992038441954
415,5.222,0.022050634160873
416,5.229,0.00402237033215487
417,5.237,0.0174812214635451
418,5.244,0.0134990748347118
419,5.252,0.0186597759708665
420,5.260,0.0145086897880826
421,5.267,0.00744540748481867
422,5.275,0.00584048172228888
423,5.282,0.015506237630457
424,5.290,0.00910262406166648
425,5.297,0.0142150567538353
426,5.305,0.0188649168578064
427,5.312,0.0075499891134547
428,5.320,0.0140742737922099
429,5.327,0.0156952890360683
430,5.335,0.0238084099960247
431,5.342,0.00803267355331328
432,5.350,0.00859580539981496
433,5.357,0.0125337059549946
434,5.365,0.00827803814357473
435,5.373,0.0153936112611567
436,5.380,0.0204859321016648
437,5.388,0.0205864913599686
438,5.395,0.00296046456446599
439,5.403,0.0139817592745703
440,5.410,0.0144483542331003
441,5.418,0.0133140457994326
442,5.425,0.0206669387666117
443,5.433,0.0143759515671215
444,5.440,0.00306102382276986
445,5.448,0.0175375346481952
446,5.455,0.0261051834556851
447,5.463,0.0197498383308804
448,5.471,0.0134668958720545
449,5.478,0.0208801243942159
450,5.486,0.0201400082530994
451,5.493,0.0207111848402654
452,5.501,0.0135674551303584
453,5.508,0.00867223043612591
454,5.516,0.0076384812607621
455,5.523,0.00763043652009779
456,5.531,0.0164233380661883
457,5.538,0.0158481391086902
458,5.546,0.0118137016655389
459,5.553,0.0155705955557715
460,5.561,0.0133703589840828
461,5.568,0.0212381153537777
462,5.576,0.014363884456125
463,5.584,0.0214673904627106
464,5.591,0.0123486769197155
465,5.599,0.0127388468419345
466,5.606,0.00449298766101699
467,5.614,0.0223322000841239
468,5.621,0.00756607859478332
469,5.629,0.0170588725786688
470,5.636,0.0123084532163939
471,5.644,0.0252926646485898
472,5.651,0.0140219829778919
473,5.659,0.0149752847466126
474,5.666,0.00506416424818298
475,5.674,0.00761032466843702
476,5.682,0.0100478810897229
477,5.689,0.0190941919667392
478,5.697,0.0216966655716434
479,5.704,0.00998352316440839
480,5.712,0.0230481820032474
481,5.719,0.0141949449021745
482,5.727,0.0387273815579871
483,5.734,0.0273320064069924
484,5.742,0.0346285861895213
485,5.749,0.0268010535231479
486,5.757,0.0146012043057222
487,5.764,0.0220224775685479
488,5.772,0.0248783605043779
489,5.779,0.0237842757740318
490,5.787,0.0220063880872193
491,5.795,0.0193636907789936
492,5.802,0.0133824260950793
493,5.810,0.011894149072182
494,5.817,0.0161900405869234
495,5.825,0.019894643662838
496,5.832,0.0084228434755323
497,5.840,0.0194119592229794
498,5.847,0.0139616474229096
499,5.855,0.0117010752962385
500,5.862,0.0176179820548383
501,5.870,0.00481879965792154
502,5.877,0.00873256599110823
503,5.885,0.0168617764323932
504,5.893,0.0101363732370303
505,5.900,0.00884921473074072
506,5.908,0.0115723594456096
507,5.915,0.0118096792952067
508,5.923,0.0154177454831496
509,5.930,0.0217771129782865
510,5.938,0.0211818021691276
511,5.945,0.0196774356649016
512,5.953,0.01220789395809
513,5.960,0.0153051191138493
514,5.968,0.0175817807218489
515,5.975,0.0187402233775096
516,5.983,0.0222276184554878
517,5.990,0.0166847921377784
518,5.998,0.0122642071427402
519,6.006,0.00887334895273365
520,6.013,0.0165198749541601
521,6.021,0.0247576893944132
522,6.028,0.0321146047319245
523,6.036,0.0342464610079666
524,6.043,0.0352560759613375
525,6.051,0.0156590877030789
526,6.058,0.0159647878483227
527,6.066,0.0158923851823439
528,6.073,0.0236515375530707
529,6.081,0.0139777369042382
530,6.088,0.0171875884292978
531,6.096,0.0211134218734809
532,6.103,0.0227746608206609
533,6.111,0.0143236607528035
534,6.119,0.0289691111321794
535,6.126,0.0347894810028075
536,6.134,0.0648687663466616
537,6.141,0.0591489557343374
538,6.149,0.0547042365173063
539,6.156,0.0416717566411245
540,6.164,0.0410804682022977
541,6.171,0.0245485261371412
542,6.179,0.0220466117905409
543,6.186,0.0237360073300459
544,6.194,0.0244881905821589
545,6.201,0.0290576032794868
546,6.209,0.0323197456188644
547,6.217,0.0258437293840951
548,6.224,0.0266522258208582
549,6.232,0.027167089223374
550,6.239,0.0146695846013688
551,6.247,0.0230079582999259
552,6.254,0.020284813585057
553,6.262,0.0270464181134094
554,6.269,0.0191344156700607
555,6.277,0.00316560545140588
556,6.284,0.0227746608206609
557,6.292,0.0250995908726464
558,6.299,0.0218615827552617
559,6.307,0.0186115075268806
560,6.314,0.015582662666768
561,6.322,0.0223402448247882
562,6.330,0.0150476874125914
563,6.337,0.023868745551007
564,6.345,0.0196372119615801
565,6.352,0.0254213804992188
566,6.360,0.0216926432013112
567,6.367,0.00989503101710099
568,6.375,0.0172237897622872
569,6.382,0.00471824039961767
570,6.390,0.0291822967597836
571,6.397,0.00902619902535553
572,6.405,0.0165480315464851
573,6.412,0.0192591091503575
574,6.420,0.0162423314012414
575,6.428,0.0199590015881525
576,6.435,0.0108443104154895
577,6.443,0.00676160452835234
578,6.450,0.02295968985594
579,6.458,0.0196372119615801
580,6.465,0.0221713052708377
581,6.473,0.0255219397575227
582,6.480,0.0162262419199128
583,6.488,0.0175254675371988
584,6.495,0.00681389534267035
585,6.503,0.025063389539657
586,6.510,0.0159165194043368
587,6.518,0.0158803180713474
588,6.525,0.0200193371431348
589,6.533,0.00751781015079746
590,6.541,0.0171111633929868
591,6.548,0.0248019354680669
592,6.556,0.0187362010071774
593,6.563,0.0244721011008302
594,6.571,0.0130686812091712
595,6.578,0.00881703576808348
596,6.586,0.0243675194721942
597,6.593,0.0226419225996998
598,6.601,0.0127670034342596
599,6.608,0.0259241767907382
600,6.616,0.0233418150374947
601,6.623,0.0223201329731274
602,6.631,0.0236796941453957
603,6.639,0.0119866635898215
604,6.646,0.0201440306234316
605,6.654,0.0231125399285619
606,6.661,0.0128112495079133
607,6.669,0.0256466332378195
608,6.676,0.0170548502083367
609,6.684,0.0149994189686055
610,6.691,0.0150315979312628
611,6.699,0.0156067968887609
612,6.706,0.0139857816449025
613,6.714,0.0263505480459466
614,6.721,0.0206588940259474
615,6.729,0.0219178959399119
616,6.736,0.0161055708099481
617,6.744,0.0090020648033626
618,6.752,0.0164716065101742
619,6.759,0.00954910716853567
620,6.767,0.019790062034202
621,6.774,0.0260971387150208
622,6.782,0.0184747469355873
623,6.789,0.0161819958462591
624,6.797,0.0154579691864712
625,6.804,0.0150557321532557
626,6.812,0.0293713481653949
627,6.819,0.0205663795083079
628,6.827,0.0119786188491572
629,6.834,0.0217972248299473
630,6.842,0.0238526560696784
631,6.850,0.0299304576415644
632,6.857,0.0195889435175942
633,6.865,0.019218885447036
634,6.872,0.026648203450526
635,6.880,0.0216483971276575
636,6.887,0.0261051834556851
637,6.895,0.0243634971018621
638,6.902,0.012284318994401
639,6.910,0.020284813585057
640,6.917,0.0298902339382429
641,6.925,0.0171192081336511
642,6.932,0.0258598188654237
643,6.940,0.0330156156863272
644,6.947,0.0177949663494532
645,6.955,0.0221632605301733
646,6.963,0.0230964504472333
647,6.970,0.0307148198563346
648,6.978,0.0240135508829646
649,6.985,0.0225614751930567
650,6.993,0.0300873300845184
651,7.000,0.0247536670240811
652,7.008,0.0329472353906806
653,7.015,0.023297568963841
654,7.023,0.0717671314663072
655,7.030,0.143610687968925
656,7.038,0.157049427248655
657,7.045,0.0739150772236779
658,7.053,0.0527372974248825
659,7.060,0.0527694763875398
660,7.068,0.0434617114389334
661,7.076,0.0422590227096191
662,7.083,0.0301758222318259
663,7.091,0.0444954606142972
664,7.098,0.0340252306396981
665,7.106,0.0323800811738467
666,7.113,0.0298017417909355
667,7.121,0.0300390616405326
668,7.128,0.0327541616147371
669,7.136,0.0386227999293511
670,7.143,0.0360002144727861
671,7.151,0.0349342863347651
672,7.158,0.07100690347353
673,7.166,0.0876836508706441
674,7.174,0.0916135066851594
675,7.181,0.0642533436858419
676,7.189,0.0434737785499299
677,7.196,0.0511404164030171
678,7.204,0.0527533869062112
679,7.211,0.0486344796860846
680,7.219,0.0634931156930647
681,7.226,0.121708881510342
682,7.234,0.200853040165821
683,7.241,0.172077002809585
684,7.249,0.147142329120557
685,7.256,0.107288683869567
686,7.264,0.092019766088707
687,7.271,0.0677407387638202
688,7.279,0.0535779728243029
689,7.287,0.0615824897852911
690,7.294,0.0674430833592407
691,7.302,0.0573670456771928
692,7.309,0.0533647871966987
693,7.317,0.0401070545819162
