#"+EI TIC Scan IPA-SLA.d "
#Point,X(Minutes),Y(Counts)
0,2.095,0.27503264297968
1,2.102,0.259222630616149
2,2.110,0.263213129176725
3,2.117,0.247040698486892
4,2.125,0.213405939623289
5,2.132,0.204898851383312
6,2.140,0.193979537939236
7,2.147,0.189287584553559
8,2.155,0.199392431006267
9,2.162,0.190094257602426
10,2.170,0.171571953248504
11,2.178,0.163029792267271
12,2.185,0.164506744371234
13,2.193,0.16073447620069
14,2.200,0.176509415822966
15,2.208,0.189287584553559
16,2.215,0.159580972710524
17,2.223,0.142827893304356
18,2.230,0.13453124151191
19,2.238,0.133451780475504
20,2.245,0.150317872047937
21,2.253,0.130341997417555
22,2.260,0.127501105375895
23,2.268,0.122875400501478
24,2.275,0.115950482589229
25,2.283,0.114091627302711
26,2.291,0.124040594905396
27,2.298,0.116796125350601
28,2.306,0.104181629412531
29,2.313,0.0908773695631113
30,2.321,0.0983244816229358
31,2.328,0.0981997785429178
32,2.336,0.099061009189292
33,2.343,0.109949146863363
34,2.351,0.0976425116540874
35,2.358,0.0961421777226209
36,2.366,0.0938039949722836
37,2.373,0.0992402698668179
38,2.381,0.0903629693580371
39,2.388,0.0909358241318698
40,2.396,0.0920659457945328
41,2.404,0.108791746401946
42,2.411,0.11838219264958
43,2.419,0.199984770636353
44,2.426,0.337232201109904
45,2.434,0.170009267777028
46,2.441,0.0838433364558465
47,2.449,0.0825378510869082
48,2.456,0.0749582420045646
49,2.464,0.0668018811771378
50,2.471,0.0789097708526347
51,2.479,0.093301285680961
52,2.486,0.0623437460664946
53,2.494,0.0723784470366924
54,2.502,0.175352015361549
55,2.509,2.61631348546122
56,2.517,2.81383537026722
57,2.524,0.675329529837433
58,2.532,0.390472622335085
59,2.539,0.29568659060766
60,2.547,0.229141909533059
61,2.554,0.208784131720122
62,2.562,0.175141578914019
63,2.569,0.156136050125027
64,2.577,0.130408245928815
65,2.584,0.133163404602962
66,2.592,0.12642554131074
67,2.599,0.112345784182459
68,2.607,0.113409657333862
69,2.615,0.105670272430246
70,2.622,0.102182483160992
71,2.630,0.109937455949611
72,2.637,0.104715514473858
73,2.645,0.095206904622486
74,2.652,0.091574927416962
75,2.660,0.315452028790512
76,2.667,2.69051961201443
77,2.675,1.66158280787223
78,2.682,0.302389381158627
79,2.690,0.371085190363538
80,2.697,1.54631429525184
81,2.705,0.814977494601331
82,2.713,0.221807809639501
83,2.720,0.15907436644795
84,2.728,0.139184225185081
85,2.735,0.132649004397888
86,2.743,0.134383156604388
87,2.750,0.126830826320799
88,2.758,0.105358514730201
89,2.765,0.111815796092382
90,2.773,0.0885430837840246
91,2.780,0.0824910874319014
92,2.788,0.110280389419661
93,2.795,0.087132380191321
94,2.803,0.0811466323504574
95,2.810,0.0879702290101919
96,2.818,0.100958834188316
97,2.826,0.0929895279809161
98,2.833,0.0816376507280283
99,2.841,0.0790383709039033
100,2.848,0.0818636750605609
101,2.856,0.0700792339988607
102,2.863,0.074447738770741
103,2.871,0.077705606736211
104,2.878,0.0758818241909479
105,2.886,0.0709794343577406
106,2.893,0.0817896326068002
107,2.901,0.0840576698746274
108,2.908,0.070726131226454
109,2.916,0.0782200069412852
110,2.924,0.0717237558665979
111,2.931,0.0627217522777992
112,2.939,0.0716029497578305
113,2.946,0.0706209130026888
114,2.954,0.0659562384157658
115,2.961,0.245739110089204
116,2.969,3.94946735027856
117,2.976,25.1213926029406
118,2.984,68.1777770226313
119,2.991,100
120,2.999,6.75575818420469
121,3.006,0.10715891544796
122,3.014,0.0901408419967551
123,3.021,0.0805192199791169
124,3.029,0.067815093702284
125,3.037,0.0725148410304621
126,3.044,0.077082091336121
127,3.052,0.0914034606819372
128,3.059,0.0736956233193824
129,3.067,0.0606680484287529
130,3.074,0.0567788711206918
131,3.082,0.064370171116787
132,3.089,0.0611084061800664
133,3.097,0.0465999822142232
134,3.104,0.0447177451002017
135,3.112,0.0403570342708225
136,3.119,0.0555357372917624
137,3.127,0.0539769487915375
138,3.135,0.0781030978037683
139,3.142,0.0691634457549786
140,3.150,0.0428043322161756
141,3.157,0.036222347773976
142,3.165,0.0516738387824552
143,3.172,0.0532170393976779
144,3.180,0.0469273277992704
145,3.187,0.0492616135783572
146,3.195,0.0581350171158874
147,3.202,0.0359222809876827
148,3.210,0.0342037166661847
149,3.217,0.0334048375598195
150,3.225,0.0377811362742009
151,3.232,0.0309926123557215
152,3.240,0.0308328365344484
153,3.248,0.0425588230273902
154,3.255,0.0383617849905347
155,3.263,0.058575374867201
156,3.270,0.0540470942740476
157,3.278,0.0397335188707326
158,3.285,0.0286388417203819
159,3.293,0.0411052527509305
160,3.300,0.0284829628703594
161,3.308,0.0382760516230223
162,3.315,0.0351467837088208
163,3.323,0.0451892786215197
164,3.330,0.0453763332415467
165,3.338,0.0270254956226491
166,3.345,0.0331125647160273
167,3.353,0.0386579548055774
168,3.361,0.0262655862287895
169,3.368,0.0278282717002649
170,3.376,0.0316395095833148
171,3.383,0.0250107614861084
172,3.391,0.0299560180030719
173,3.398,0.0232064637970981
174,3.406,0.0320447945933733
175,3.413,0.0317408308358294
176,3.421,0.0353182504438455
177,3.428,0.0292623571204718
178,3.436,0.029270151062973
179,3.443,0.025486191978677
180,3.451,0.017251891726239
181,3.459,0.0296832300155325
182,3.466,0.0218113480893968
183,3.474,0.036506826675267
184,3.481,0.0204668930079529
185,3.489,0.0574101804632829
186,3.496,0.0791046194151628
187,3.504,0.0256498647712006
188,3.511,0.0340751166149162
189,3.519,0.0399634401745157
190,3.526,0.018721049887701
191,3.534,0.0169868976812008
192,3.541,0.017688352506302
193,3.549,0.00777445764487166
194,3.556,0.0216009116418665
195,3.564,0.0154164182672242
196,3.572,0.0270410835076514
197,3.579,0.0152605394172017
198,3.587,0.0386267790355729
199,3.594,0.0453373635290411
200,3.602,0.045649121229086
201,3.609,0.0371420329891087
202,3.617,0.0341491590686769
203,3.624,0.0175987221675391
204,3.632,0.0257940527074714
205,3.639,0.0258135375637242
206,3.647,0.0207396809954922
207,3.654,0.0232142577395992
208,3.662,0.00700285733726034
209,3.670,0.0191068500415066
210,3.677,0.0141849753520465
211,3.685,0.0252562706748938
212,3.692,0.0162425761723434
213,3.700,0.0102724162164821
214,3.707,0.0312965761132653
215,3.715,0.0314446610207867
216,3.722,0.013557562980706
217,3.730,0.0221503845881957
218,3.737,0.0119130411129688
219,3.745,0.0070691058485199
220,3.752,0.0124430292030452
221,3.760,0.0159658912135535
222,3.767,0.0246600340735578
223,3.775,0.0195277229365674
224,3.783,0.0187522256577055
225,3.790,0.0169362370549435
226,3.798,0.0146058482471073
227,3.805,0.0200810928541472
228,3.813,0.0269007925426311
229,3.820,0.0127197141618351
230,3.828,0.0152839212447051
231,3.835,0.0197186745278449
232,3.843,0.0168933703711873
233,3.850,0.021978917853171
234,3.858,0.0188730317664729
235,3.865,0.0205799051742192
236,3.873,0.00704962099226708
237,3.881,0.02918052072421
238,3.888,0.0435291688687802
239,3.896,0.0340673226724151
240,3.903,0.0294104420279932
241,3.911,0.0167258006074131
242,3.918,0.00629360856965801
243,3.926,0.0174818130300222
244,3.933,0.0176649706787986
245,3.941,0.0205487294042147
246,3.948,0.0253692828411602
247,3.956,0.0129457384943677
248,3.963,0.0414598771347316
249,3.971,0.0778458977012312
250,3.978,0.048622510293265
251,3.986,0.00638323890842094
252,3.994,0.0235961609221543
253,4.001,0.0551850098792118
254,4.009,0.220315269650536
255,4.016,0.117883380329508
256,4.024,0.0502982079310068
257,4.031,0.0291142722129505
258,4.039,0.0415378165597429
259,4.046,0.0389541246206201
260,4.054,0.0416547256972597
261,4.061,0.0265539621013311
262,4.069,0.0728733623855138
263,4.076,0.0615760427301339
264,4.084,0.0325358129709441
265,4.091,0.0229609546083127
266,4.099,0.0256810405412051
267,4.107,0.0295195572230089
268,4.114,0.0153228909572107
269,4.122,0.0429913868362026
270,4.129,0.0848643429234938
271,4.137,0.0682047908273403
272,4.144,0.0450139149152444
273,4.152,0.045115236167759
274,4.159,0.0431706475137284
275,4.167,0.0325786796547003
276,4.174,0.0343206258037016
277,4.182,0.0197498502978494
278,4.189,0.0192783167765314
279,4.197,0.0265383742163288
280,4.205,0.0122170048705126
281,4.212,0.0233506517333689
282,4.220,0.0145318057933466
283,4.227,0.0166634490674041
284,4.235,0.0216359843831215
285,4.242,0.0184053952164054
286,4.250,0.0131873507119026
287,4.257,0.0154086243247231
288,4.265,0.0239897550184611
289,4.272,0.0249990705723567
290,4.280,0.0178598192413267
291,4.287,0.0113012166266305
292,4.295,0.0107244648815473
293,4.302,0.00937611282885274
294,4.310,0.0155878850022489
295,4.318,0.0189120014789785
296,4.325,0.00966059173014378
297,4.333,0
298,4.340,0.0187015650314482
299,4.348,0.0220217845369272
300,4.355,0.0323604492646688
301,4.363,0.013370508360679
302,4.370,0.0258447133337287
303,4.378,0.0263279377687985
304,4.385,0.0233896214458745
305,4.393,0.0127353020468374
306,4.400,0.0120494351067384
307,4.408,0.024667828016059
308,4.416,0.0829002694132104
309,4.423,0.149651489964091
310,4.431,0.045364642327795
311,4.438,0.0187717105139583
312,4.446,0.015213775762195
313,4.453,0.0212930509130721
314,4.461,0.0245392279647904
315,4.468,0.0267488106638592
316,4.476,0.0188730317664729
317,4.483,0.0204513051229506
318,4.491,0.0212813599993204
319,4.498,0.0140836540995319
320,4.506,0.0949691893762017
321,4.513,0.119566871909751
322,4.521,0.0817077962105384
323,4.529,0.0788552132551268
324,4.536,0.0479834070081728
325,4.544,0.0396750643019741
326,4.551,0.0366666024965401
327,4.559,0.0363353599402423
328,4.566,0.0288648660529145
329,4.574,0.038821627598101
330,4.581,0.0346986320150061
331,4.589,0.0202681474741742
332,4.596,0.0235766760659015
333,4.604,0.0240131368459645
334,4.611,0.0325514008559464
335,4.619,0.0265344772450783
336,4.627,0.0186080377214347
337,4.634,0.0219360511694148
338,4.642,0.0238260822259375
339,4.649,0.0352364140475837
340,4.657,0.0104633678077596
341,4.664,0.0213476085105799
342,4.672,0.0207124021967383
343,4.679,0.0206188748867248
344,4.687,0.0229804394645655
345,4.694,0.0142356359783038
346,4.702,0.0201200625666528
347,4.709,0.00800048197740427
348,4.717,0.0151825999921905
349,4.724,0.0277074655914975
350,4.732,0.0247574583548219
351,4.740,0.0335529224673409
352,4.747,0.0446359087039398
353,4.755,0.0460505092678939
354,4.762,0.0311562851482451
355,4.770,0.0159386124147995
356,4.777,0.0224582453169902
357,4.785,0.0254939859211781
358,4.792,0.0233779305321229
359,4.800,0.0182339284813807
360,4.807,0.0167881521474221
361,4.815,0.0291688298104583
362,4.822,0.0246600340735578
363,4.830,0.0211254811492979
364,4.838,0.0296754360730314
365,4.845,0.0491992620383482
366,4.853,0.317018611233238
367,4.860,0.522420171907872
368,4.868,0.180106320287235
369,4.875,0.0741788477544522
370,4.883,0.0467948307767513
371,4.890,0.0448151693814657
372,4.898,0.0395347733369539
373,4.905,0.0507034929410652
374,4.913,0.0531390999726666
375,4.920,0.0628269705015644
376,4.928,0.0561319738930984
377,4.935,0.0353065595300939
378,4.943,0.0286778114328875
379,4.951,0.0261564710337737
380,4.958,0.0327579403322262
381,4.966,0.0436850477188027
382,4.973,0.0269748349963918
383,4.981,0.0110518104665945
384,4.988,0.0264058771938097
385,4.996,0.0208098264780023
386,5.003,0.0174428433175166
387,5.011,0.127933669184708
388,5.018,0.708052397428404
389,5.026,0.62068619896205
390,5.033,0.163119422606034
391,5.041,0.10383090199998
392,5.048,0.0704650341526663
393,5.056,0.0518725843162339
394,5.064,0.0418963379147946
395,5.071,0.0449515633752354
396,5.079,0.032874849469743
397,5.086,0.0464012366804445
398,5.094,0.0400608644557798
399,5.101,0.0319395763696081
400,5.109,0.0290675085579437
401,5.116,0.03659645701403
402,5.124,0.0393321308319246
403,5.131,0.0285764901803729
404,5.139,0.0440942297001117
405,5.146,0.209785653331517
406,5.154,0.712276714264014
407,5.162,0.40526552520222
408,5.169,0.140528680266525
409,5.177,0.0813804506254912
410,5.184,0.0787577889738628
411,5.192,0.109200928383255
412,5.199,0.10875277668944
413,5.207,0.0723355803529362
414,5.214,0.0438214417125723
415,5.222,0.0606719454000034
416,5.229,0.0522622814412901
417,5.237,0.12066971477366
418,5.244,1.21686824270056
419,5.252,2.54927778600905
420,5.259,0.916680650298504
421,5.267,0.328764082582432
422,5.275,0.214902376583505
423,5.282,0.167004702942845
424,5.290,0.14098072893159
425,5.297,0.168321879225535
426,5.305,0.15997066983558
427,5.312,0.121055514927465
428,5.320,0.103682817092459
429,5.327,0.106570472789125
430,5.335,0.085281318847304
431,5.342,0.0809167110466743
432,5.350,0.0707066463702012
433,5.357,0.0736722414918791
434,5.365,0.0704377553539124
435,5.373,0.0630218190640925
436,5.380,0.0573049622395177
437,5.388,0.0548109006391578
438,5.395,0.0594015327723202
439,5.403,0.0498851289784472
440,5.410,0.0411442224634361
441,5.418,0.0475040795443537
442,5.425,0.0463505760541872
443,5.433,0.0558007313368007
444,5.440,0.0427692594749205
445,5.448,0.0483808980757302
446,5.455,0.0444332661989106
447,5.463,0.0554655918092523
448,5.470,0.0579479624958604
449,5.478,0.0784226494463144
450,5.486,0.0410429012109215
451,5.493,0.041420907422226
452,5.501,0.0448190663527163
453,5.508,0.0414871559334856
454,5.516,0.050126741195982
455,5.523,0.0508204020785821
456,5.531,0.0386384699493246
457,5.538,0.0433577021337554
458,5.546,0.040290785759563
459,5.553,0.0428783746699363
460,5.561,0.0308679092757035
461,5.568,0.0368224813465626
462,5.576,0.0363236690264906
463,5.584,0.059545720708591
464,5.591,0.0610226728125541
465,5.599,0.0506995959698147
466,5.606,0.118670568522121
467,5.614,2.64362735695641
468,5.621,15.6657308999502
469,5.629,21.3019282135808
470,5.636,3.261149215263
471,5.644,0.926130805581118
472,5.651,0.620218562411982
473,5.659,0.461693668910361
474,5.666,0.370835784203502
475,5.674,0.318534533049707
476,5.681,0.276353716233621
477,5.689,0.24889955377341
478,5.697,0.243338575798858
479,5.704,0.201660468274095
480,5.712,0.193274186142885
481,5.719,0.179712726190928
482,5.727,0.188477014533443
483,5.734,0.169830007099502
484,5.742,0.13495211440697
485,5.749,0.124243237410425
486,5.757,0.132980246954186
487,5.764,0.117797646961995
488,5.772,0.105666375458995
489,5.779,0.113300542138846
490,5.787,0.110221934850902
491,5.794,0.0883131624802414
492,5.802,0.0955030744375287
493,5.810,0.0796346075052393
494,5.817,0.0927557097058823
495,5.825,0.0909592059593731
496,5.832,0.0806595109441372
497,5.840,0.0673357662384649
498,5.847,0.0592105811810426
499,5.855,0.0683996393898684
500,5.862,0.0684152272748706
501,5.870,0.0656444807157209
502,5.877,0.064931334976868
503,5.885,0.0586844900622167
504,5.892,0.0629750554090857
505,5.900,0.0620280913951991
506,5.908,0.0572815804120143
507,5.915,0.0656795534569759
508,5.923,0.055574707004268
509,5.930,0.0577414230195806
510,5.938,0.0536223244077364
511,5.945,0.0444956177389196
512,5.953,0.0496162379621584
513,5.960,0.0507658444810742
514,5.968,0.0442929752338904
515,5.975,0.0569347499707143
516,5.983,0.0546238460191309
517,5.990,0.0453958180977995
518,5.998,0.047242982470566
519,6.005,0.0635089404704128
520,6.013,0.0530845423751588
521,6.021,0.0649001592068635
522,6.028,0.0648533955518567
523,6.036,0.0639531951929768
524,6.043,0.0584350839021807
525,6.051,0.0376681241079346
526,6.058,0.0605316544349832
527,6.066,0.0547134763578938
528,6.073,0.0559799920143265
529,6.081,0.051034735497363
530,6.088,0.0396010218482134
531,6.096,0.042987489864952
532,6.103,0.0431823384274801
533,6.111,0.0531936575701745
534,6.119,0.0452009695352714
535,6.126,0.0726824107942363
536,6.134,0.118008083409526
537,6.141,0.108328006823129
538,6.149,0.0825222632019059
539,6.156,0.0621605884177182
540,6.164,0.0544913489966117
541,6.171,0.0555786039755186
542,6.179,0.0467558610642457
543,6.186,0.0462531517729232
544,6.194,0.0364210933077547
545,6.201,0.0355130990063737
546,6.209,0.0550252340579388
547,6.216,0.0564865982768996
548,6.224,0.045960878929131
549,6.232,0.050278723074754
550,6.239,0.0491524983833415
551,6.247,0.058797502228483
552,6.254,0.0576907623933233
553,6.262,0.0480418615769312
554,6.269,0.0566580650119243
555,6.277,0.0869842952837997
556,6.284,0.0850786763422747
557,6.292,0.0770587095086177
558,6.299,0.0637505526879476
559,6.307,0.0569776166544705
560,6.314,0.0494135954571292
561,6.322,0.0561865314906063
562,6.330,0.0468221095755053
563,6.337,0.056322925484376
564,6.345,0.0465376306742142
565,6.352,0.0419431015698013
566,6.360,0.0442812843201387
567,6.367,0.0363431538827434
568,6.375,0.0424964714873812
569,6.382,0.0501696078797382
570,6.390,0.0370017420240884
571,6.397,0.0398192522382449
572,6.405,0.0416664166110114
573,6.412,0.0666732811258693
574,6.420,0.0571958470445019
575,6.427,0.0539613609065353
576,6.435,0.0319278854558564
577,6.443,0.0388683912531077
578,6.450,0.0425705139411419
579,6.458,0.0334905709273319
580,6.465,0.0510074566986091
581,6.473,0.040014100800773
582,6.480,0.0419392045985508
583,6.488,0.0539808457627881
584,6.495,0.0350493594275567
585,6.503,0.0272826957251862
586,6.510,0.037504451315411
587,6.518,0.0484471465869897
588,6.525,0.0365029297040165
589,6.533,0.0481003161456897
590,6.540,0.0592924175773044
591,6.548,0.0598146117248798
592,6.556,0.0624022006352531
593,6.563,0.0874909015463727
594,6.571,0.102887834957344
595,6.578,0.0975411904015728
596,6.586,0.0836212090945645
597,6.593,0.0680878816898234
598,6.601,0.0564242467368906
599,6.608,0.0953978562137635
600,6.616,0.100565240092009
601,6.623,0.0840888456446319
602,6.631,0.0739372355369173
603,6.638,0.0528741059276284
604,6.646,0.0500799775409753
605,6.654,0.052157063217525
606,6.661,0.0545342156803679
607,6.669,0.0447294360139533
608,6.676,0.048088625231938
609,6.684,0.0700090885163506
610,6.691,0.0612448001738361
611,6.699,0.0494798439683887
612,6.706,0.0516777357537058
613,6.714,0.0517400872937148
614,6.721,0.0508398869348349
615,6.729,0.0453841271840478
616,6.736,0.0386189850930718
617,6.744,0.0452711150177815
618,6.751,0.0481626676856987
619,6.759,0.0516777357537058
620,6.767,0.0479950979219245
621,6.774,0.0561280769218479
622,6.782,0.0416975923810159
623,6.789,0.0493590378596213
624,6.797,0.0359612507001883
625,6.804,0.0444254722564095
626,6.812,0.0427770534174217
627,6.819,0.0354078807826085
628,6.827,0.0342348924361892
629,6.834,0.0384825910993021
630,6.842,0.0320603824783755
631,6.849,0.0516855296962069
632,6.857,0.0258213315062254
633,6.865,0.0571919500732514
634,6.872,0.0441059206138634
635,6.880,0.0556565434005298
636,6.887,0.0627256492490497
637,6.895,0.0721134529916542
638,6.902,0.0635712920104217
639,6.910,0.0682749363098504
640,6.917,0.0668798206021491
641,6.925,0.0715483921603226
642,6.932,0.058388320247174
643,6.940,0.0663849052533277
644,6.947,0.0664472567933367
645,6.955,0.0659835172145198
646,6.962,0.0620787520214564
647,6.970,0.0696115974487932
648,6.978,0.056509980104403
649,6.985,0.0813531718267372
650,6.993,0.0982114694566695
651,7.000,0.0995247487681089
652,7.008,0.0817000022680373
653,7.015,0.0852969067323062
654,7.023,0.132878925701671
655,7.030,0.231994492488471
656,7.038,0.181856060378737
657,7.045,0.123452152246561
658,7.053,0.120455381354879
659,7.060,0.101909695173453
660,7.068,0.117789853019494
661,7.076,0.0978178753603627
662,7.083,0.0798606318377719
663,7.091,0.0934688554447352
664,7.098,0.0918399214620002
665,7.106,0.0873116408688469
666,7.113,0.122657170111446
667,7.121,0.126487892850749
668,7.128,0.112244462929944
669,7.136,0.0946730195611589
670,7.143,0.0867504770087659
671,7.151,0.0902889269042764
672,7.158,0.119921496293552
673,7.166,0.175901488307878
674,7.173,0.160929324763218
675,7.181,0.130696621801356
676,7.189,0.10140698588213
677,7.196,0.0855190340935883
678,7.204,0.0896654115041865
679,7.211,0.0902148844505158
680,7.219,0.117669046910727
681,7.226,0.243206078776339
682,7.234,0.309930020528465
683,7.241,0.194567980598071
684,7.249,0.169693613105733
685,7.256,0.185051576804198
686,7.264,0.169073994676893
687,7.271,0.121527048448783
688,7.279,0.116710391983088
689,7.287,0.110537589522198
690,7.294,0.10452456288258
691,7.302,0.116032318985491
692,7.309,0.164510641342485
693,7.317,0.190277415251202
694,7.324,0.242356539043716
695,7.332,0.248330595970828
696,7.339,0.163372725737321
697,7.347,0.127497208404645
698,7.354,0.140657280317793
699,7.362,0.130575815692589
700,7.369,0.117427434693192
