#"+EI TIC Scan IPA-End-Blank2.d "
#Point,X(Minutes),Y(Counts)
0,2.095,0.220196993051606
1,2.102,0.214059646899519
2,2.110,0.225451786125329
3,2.117,0.192815333513206
4,2.125,0.189073488573819
5,2.132,0.168918858069975
6,2.140,0.167892214693104
7,2.147,0.161354117398291
8,2.155,0.179171783373204
9,2.162,0.153339094543769
10,2.170,0.154406263317096
11,2.178,0.146607375910335
12,2.185,0.137853890275958
13,2.193,0.148647154198593
14,2.200,0.142478288293708
15,2.208,0.132274894030591
16,2.215,0.127519914179818
17,2.223,0.121062867677916
18,2.230,0.101615180201128
19,2.238,0.10598291737466
20,2.245,0.12018932024321
21,2.253,0.106824945056568
22,2.260,0.111273733023011
23,2.268,0.10545608722074
24,2.275,0.105712748064957
25,2.283,0.0979723973419663
26,2.291,0.0984406908121181
27,2.298,0.0913352379669291
28,2.306,0.102367151446468
29,2.313,0.0882643134799716
30,2.321,0.0983056061572666
31,2.328,0.100295853405412
32,2.336,0.0933570049678733
33,2.343,0.0844819431441296
34,2.351,0.105226443307492
35,2.358,0.0805239627569806
36,2.366,0.0809607364743337
37,2.373,0.0769487222252441
38,2.381,0.0836444182840503
39,2.389,0.0899933970620709
40,2.396,0.0942080382934377
41,2.404,0.107396803428773
42,2.411,0.143721067118342
43,2.419,0.305394884866448
44,2.426,0.344258740067225
45,2.434,0.130446748368267
46,2.441,0.0810417872672446
47,2.449,0.0709779804808077
48,2.456,0.0758635421646037
49,2.464,0.0787138283819704
50,2.471,0.0839686214556939
51,2.479,0.0690237558072893
52,2.486,0.0835093336291988
53,2.494,0.0701089358679297
54,2.502,0.0948609474585533
55,2.509,0.0671821016794805
56,2.517,0.0752961866142274
57,2.524,0.0766740500937127
58,2.532,0.0748188875004188
59,2.539,0.0774485354481947
60,2.547,0.0734905550610457
61,2.554,0.0804654260732116
62,2.562,0.0759400901356862
63,2.569,0.0693164392261342
64,2.577,0.0689066824397513
65,2.584,0.0650702782419687
66,2.592,0.0705367039416261
67,2.600,0.0748504072532175
68,2.607,0.0671505819266818
69,2.615,0.066119435727982
70,2.622,0.0648316286850644
71,2.630,0.0675513330694079
72,2.637,0.064827125863236
73,2.645,0.0599730839322387
74,2.652,0.0613059191934401
75,2.660,0.0648226230414076
76,2.667,0.053741178521756
77,2.675,0.0658762833492493
78,2.682,0.0487160293612801
79,2.690,0.0594237396691759
80,2.697,0.0472661207325407
81,2.705,0.0541149127335118
82,2.713,0.0616616421178824
83,2.720,0.0545877090254921
84,2.728,0.06384100788282
85,2.735,0.075467293843706
86,2.743,0.0840811920014034
87,2.750,0.0903671312738267
88,2.758,0.0704376418614017
89,2.765,0.0670380113809722
90,2.773,0.0646875383865561
91,2.780,0.0818703064836672
92,2.788,0.079249664179548
93,2.795,0.0581224241607731
94,2.803,0.044451857089801
95,2.810,0.053317913269888
96,2.818,0.0651243121039093
97,2.826,0.0668218759332098
98,2.833,0.0609231793380276
99,2.841,0.0562672615674791
100,2.848,0.0644173690768531
101,2.856,0.0723333298511511
102,2.863,0.0683303212457183
103,2.871,0.0704376418614017
104,2.878,0.0602432532419417
105,2.886,0.0619543255367274
106,2.893,0.0641562054108068
107,2.901,0.0741749839789599
108,2.908,0.0675468302475796
109,2.916,0.0695505859612102
110,2.924,0.0730312672345506
111,2.931,0.0626162403454997
112,2.939,0.0473471715254516
113,2.946,0.0545877090254921
114,2.954,0.06938398155356
115,2.961,0.426574825911902
116,2.969,6.74068825451534
117,2.976,31.4037105773446
118,2.984,71.5441968172615
119,2.991,100
120,2.999,7.25406397681299
121,3.006,0.141717311404711
122,3.014,0.11946436592884
123,3.021,0.0994583285453328
124,3.029,0.100764146875564
125,3.037,0.0709644720153226
126,3.044,0.106860967631195
127,3.052,0.101615180201128
128,3.059,0.0754492825563924
129,3.067,0.0834372884799446
130,3.074,0.0930102876870877
131,3.082,0.0753547232979964
132,3.089,0.059225615508727
133,3.097,0.0735941199630985
134,3.104,0.0677449544080284
135,3.112,0.0535340487176504
136,3.119,0.0648811597251766
137,3.127,0.0747873677476201
138,3.135,0.104636573647974
139,3.142,0.0791370936338385
140,3.150,0.0538537490674656
141,3.157,0.0529171621271619
142,3.165,0.0902005268661765
143,3.172,0.0712661610778243
144,3.180,0.060481902798846
145,3.187,0.0639986066468134
146,3.195,0.0543220425376175
147,3.202,0.0422184574629229
148,3.210,0.044415834515174
149,3.217,0.0439205241140518
150,3.225,0.041597068050606
151,3.232,0.0456586133398078
152,3.240,0.0478379791047454
153,3.248,0.0445554219918539
154,3.255,0.116744661544497
155,3.263,0.562379932255946
156,3.270,0.805397226333799
157,3.278,0.272537793984734
158,3.285,0.0528946480180199
159,3.293,0.0479640581159401
160,3.300,0.0420248361243024
161,3.308,0.0501569323463628
162,3.315,0.0762102594453892
163,3.323,0.0639670868940147
164,3.330,0.0413899382465003
165,3.338,0.0566725155320336
166,3.346,0.0453524214554777
167,3.353,0.0307632787315155
168,3.361,0.0447715574396163
169,3.368,0.0415160172576951
170,3.376,0.0400255832325001
171,3.383,0.0427272763295302
172,3.391,0.0422950054340054
173,3.398,0.0241441306437919
174,3.406,0.0387107592586122
175,3.413,0.0329606557837666
176,3.421,0.0339152540113839
177,3.428,0.0307182505132316
178,3.436,0.0241171137128216
179,3.443,0.025508485657792
180,3.451,0.0363467777987109
181,3.459,0.0348293268425457
182,3.466,0.0327535259796609
183,3.474,0.0280525799908287
184,3.481,0.0366304555738991
185,3.489,0.0912181645993912
186,3.496,0.0899843914184141
187,3.504,0.0326499610776081
188,3.511,0.0229914082557257
189,3.519,0.0303805388761029
190,3.526,0.0290567092585582
191,3.534,0.0385531604946188
192,3.541,0.0212848387827684
193,3.549,0.0235722722715872
194,3.556,0.0337081242072782
195,3.564,0.0232525719217719
196,3.572,0.0320240688434628
197,3.579,0.0212037879898575
198,3.587,0.0321366393891724
199,3.594,0.0417456611709426
200,3.602,0.017110722947857
201,3.609,0.0212353077426562
202,3.617,0.0281921674675085
203,3.624,0.028349766231502
204,3.632,0.0199925289180223
205,3.639,0.0275077385495943
206,3.647,0.0235632666279304
207,3.654,0.0288180597016538
208,3.662,0.025413926399396
209,3.670,0.0370717321130806
210,3.677,0.0151925208489656
211,3.685,0.0213433754665374
212,3.692,0.0243962886661813
213,3.700,0.0319160011195816
214,3.707,0.0186912134096195
215,3.715,0.020294217980524
216,3.722,0.0313666568565188
217,3.730,0.0262649597249604
218,3.737,0.0140623125700414
219,3.745,0.0115047097715196
220,3.752,0.0246439438667424
221,3.760,0.0217666407184054
222,3.767,0.0199069753032831
223,3.775,0.0297501438201292
224,3.783,0.0312766004199512
225,3.790,0.0225501317165441
226,3.798,0.0232255549908016
227,3.805,0.0317584023555882
228,3.813,0.0200285514926494
229,3.820,0.0251752768424917
230,3.828,0.0226176740439699
231,3.835,0.0164578137827414
232,3.843,0.0263685246270133
233,3.850,0.0294529575794559
234,3.858,0.0118154044776781
235,3.865,0.0213298670010522
236,3.873,0.0202672010495537
237,3.881,0.0235227412314749
238,3.888,0.0169486213620352
239,3.896,0.0147917697062395
240,3.903,0.0185291118237977
241,3.911,0.0232435662781152
242,3.918,0.0231535098415475
243,3.926,0.0155617522388931
244,3.933,0.0213478782883658
245,3.941,0.0181643832556987
246,3.948,0.0185471231111113
247,3.956,0.0150259164413154
248,3.963,0.0307362618005452
249,3.971,0.086530727076044
250,3.978,0.0535925854014194
251,3.986,0.0288946076727364
252,3.994,0.0146251652985893
253,4.001,0.0158634413013948
254,4.009,0.0175519994870385
255,4.016,0.0238109218284915
256,4.024,0.00965405000005403
257,4.031,0.0221989116139302
258,4.039,0.0113200940765559
259,4.046,0.0201816474348144
260,4.054,0.0122341669077177
261,4.061,0.0208390594217584
262,4.069,0.0115632464552886
263,4.076,0.0164713222482265
264,4.084,0.03985897882485
265,4.092,0.22333095704416
266,4.099,0.507585093426348
267,4.107,0.275126916536055
268,4.114,0.0606845297811232
269,4.122,0.017979767560735
270,4.129,0.0130536804804835
271,4.137,0.0191910266325701
272,4.144,0.022631182509455
273,4.152,0.0171962765625962
274,4.159,0.0158274187267677
275,4.167,0.0189883996502928
276,4.174,0.0256300618471584
277,4.182,0.0195017213387286
278,4.189,0.0203977828825769
279,4.197,0.0167414915579295
280,4.205,0.0121215963620081
281,4.212,0.0155572494170647
282,4.220,0.0219287423042272
283,4.227,0.0164488081390846
284,4.235,0.0201005966419035
285,4.242,0.016277700909606
286,4.250,0.0223114821596398
287,4.257,0.0211002230878047
288,4.265,0.0231490070197191
289,4.272,0.0249546385729009
290,4.280,0.0122296640858893
291,4.287,0.0162011529385235
292,4.295,0.0195827721316395
293,4.302,0.0147692555970976
294,4.310,0.0140037758862724
295,4.318,0.0202176700094415
296,4.325,0.0102574281250574
297,4.333,0.0172413047808801
298,4.340,0.0284983593518386
299,4.348,0.0138867025187344
300,4.355,0.00966755846553919
301,4.363,0.0295925450561358
302,4.370,0.0194296761894744
303,4.378,0.0131437369170512
304,4.385,0.0146927076260151
305,4.393,0.0228022897389336
306,4.400,0.0254409433303663
307,4.408,0.0270799704758978
308,4.416,0.108999807999677
309,4.423,0.132684650816974
310,4.431,0.0546057203128056
311,4.438,0.0253688981811121
312,4.446,0.00923528757001438
313,4.453,0.0249366272855873
314,4.461,0.0153050913946752
315,4.468,0.0213523811101941
316,4.476,0.0244773394590922
317,4.483,0.0185156033583126
318,4.491,0.00701539640862135
319,4.498,0.0134679400886948
320,4.506,0.00972159232747979
321,4.513,0.0156743227846027
322,4.521,0.0124863249301072
323,4.529,0.0130311663713416
324,4.536,0.0220007874534813
325,4.544,0.017921230876966
326,4.551,0.0169666326493487
327,4.559,0.0065696170476114
328,4.566,0.0250762147622672
329,4.574,0.0193216084655932
330,4.581,0.0232435662781152
331,4.589,0.0195737664879827
332,4.596,0.0139002109842196
333,4.604,0.0161201021456126
334,4.611,0.0196052862407814
335,4.619,0.0207264888760488
336,4.627,0.0127519914179818
337,4.634,0.0145711314366487
338,4.642,0.0153050913946752
339,4.649,0.0128870760728333
340,4.657,0.0201186079292171
341,4.664,0.018191400186669
342,4.672,0.0121576189366352
343,4.679,0.00556098495805351
344,4.687,0.0131077143424241
345,4.694,0.0217351209656067
346,4.702,0.0193936536148474
347,4.709,0.00496210965487852
348,4.717,0.0189388686101806
349,4.724,0.0189883996502928
350,4.732,0.00639400699630444
351,4.740,0.00923078474818599
352,4.747,0.0186551908349925
353,4.755,0.0196863370336923
354,4.762,0.0118244101213348
355,4.770,0.00797449745806702
356,4.777,0.0150124079758303
357,4.785,0.00675423274257512
358,4.792,0.00384991266326782
359,4.800,0.0180698239973026
360,4.807,0.0143369847015728
361,4.815,0.00955048509800122
362,4.822,0.00197673878266032
363,4.830,0.0238559500467753
364,4.838,0.0777412188670396
365,4.845,0.0804834373605251
366,4.853,0.0363963088388231
367,4.860,0.0094469201959484
368,4.868,0.00429118920244939
369,4.875,0.00928932143195498
370,4.883,0.00829419780788224
371,4.890,0.0146882048041867
372,4.898,0.00512871406252871
373,4.905,0.0105140889692753
374,4.913,0.0129636240439158
375,4.920,0.0281876646456802
376,4.928,0.0070018879431362
377,4.935,0.0235947863807291
378,4.943,0.0253779038247689
379,4.951,0.00638950417447606
380,4.958,0.0127745055271237
381,4.966,0.0127519914179818
382,4.973,0.0151564982743386
383,4.981,0.0227122333023659
384,4.988,0.0119144665579025
385,4.996,0.0065696170476114
386,5.003,0.0113471110075262
387,5.011,0.00957299920714313
388,5.018,0.0126799462687277
389,5.026,0.0177591292911442
390,5.033,0.0191730153452566
391,5.041,0.0269493886428747
392,5.049,0.0183309876633489
393,5.056,0.0191865238107417
394,5.064,0.0314747245804
395,5.071,0.0292233136662083
396,5.079,0.0154041534748997
397,5.086,0.0252248078826039
398,5.094,0.0264855979945512
399,5.101,0.0280120545943732
400,5.109,0.0182229199394677
401,5.116,0.0214109177939631
402,5.124,0.015314097038332
403,5.131,0.028655958115832
404,5.139,0.0155302324860944
405,5.146,0.0109238457556582
406,5.154,0.010910337290173
407,5.162,0.026976405573845
408,5.169,0.0216495673508674
409,5.177,0.0152330462454211
410,5.184,0.0229103574628148
411,5.192,0.0253058586755148
412,5.199,0.0116217831390576
413,5.207,0.0126529293377574
414,5.214,0.0152330462454211
415,5.222,0.0130806974114538
416,5.229,0.0279715291979178
417,5.237,0.00874447999072058
418,5.244,0.02008258535459
419,5.252,0.00307092448695749
420,5.259,0.014598148367619
421,5.267,0.0207174832323921
422,5.275,0.0161516218984113
423,5.282,0.0179257336987944
424,5.290,0.0128420478545495
425,5.297,0.0242702096549866
426,5.305,0.0219332451260556
427,5.312,0.00938388069035103
428,5.320,0.0144720693564243
429,5.327,0.0230724590486366
430,5.335,0.00815911315303074
431,5.342,0.0115272238806615
432,5.350,0.0207084775887353
433,5.357,0.0266747165113433
434,5.365,0.0252878473882012
435,5.373,0.0154761986241538
436,5.380,0.0130536804804835
437,5.388,0.0207354945197056
438,5.395,0.0106851961987538
439,5.403,0.0160795767491572
440,5.410,0.0199565063433953
441,5.418,0.0131842623135066
442,5.425,0.0169711354711771
443,5.433,0.0144270411381405
444,5.440,0.00886605618008694
445,5.448,0.00900114083493844
446,5.455,0.0184660723182004
447,5.463,0.0285118678173238
448,5.470,0.025720118283726
449,5.478,0.033176791231529
450,5.486,0.0238379387594618
451,5.493,0.0202266756530983
452,5.501,0.0300968611009147
453,5.508,0.0371077546877077
454,5.516,0.019389150793019
455,5.523,0.0244142999534949
456,5.531,0.0165298589319955
457,5.538,0.0150979615905696
458,5.546,0.0129095901819752
459,5.553,0.0175294853778966
460,5.561,0.0121711274021204
461,5.568,0.0152060293144508
462,5.576,0.0203887772389201
463,5.584,0.0129636240439158
464,5.591,0.0186011569730519
465,5.599,0.00621389412316911
466,5.606,0.0151790123834805
467,5.614,0.0217081040346364
468,5.621,0.00985667698233129
469,5.629,0.0181959030084974
470,5.636,0.0122927035914867
471,5.644,0.0114551787314074
472,5.651,0.0130761945896254
473,5.659,0.0195107269823853
474,5.666,0.011896455270589
475,5.674,0.0193621338620487
476,5.681,0.0157283566465433
477,5.689,0.0238559500467753
478,5.697,0.0173313612174478
479,5.704,0.0138011489039952
480,5.712,0.0128285393890643
481,5.719,0.0209966581857518
482,5.727,0.0234191763294221
483,5.734,0.0271925410216074
484,5.742,0.0214064149721347
485,5.749,0.0114551787314074
486,5.757,0.020951629967468
487,5.764,0.00731258264929466
488,5.772,0.011121969916107
489,5.779,0.00168855818564378
490,5.787,0.0197718906484316
491,5.795,0.0143099677706025
492,5.802,0.0139317307370183
493,5.810,0.0151700067398237
494,5.817,0.0148953346082923
495,5.825,0.0143955213853418
496,5.832,0.00900564365676682
497,5.840,0.013576007812576
498,5.847,0.0241846560402473
499,5.855,0.0118289129431632
500,5.862,0.021937747947884
501,5.870,0.0159850174907611
502,5.877,0.0155302324860944
503,5.885,0.00632196184705031
504,5.892,0.0141298548974671
505,5.900,0.016453310960913
506,5.908,0.00631295620339354
507,5.915,0.0121531161148068
508,5.923,0.0158139102612825
509,5.930,0.00710545284518902
510,5.938,0.0124277882463382
511,5.945,0.0148007753498963
512,5.953,0.0094199032649781
513,5.960,0.0169531241838635
514,5.968,0.0176105361708075
515,5.975,0.0175700107743521
516,5.983,0.0159534977379624
517,5.990,0.0188983432137252
518,5.998,0.00489006450562438
519,6.005,0.0148142838153814
520,6.013,0.0177591292911442
521,6.021,0.01378764043851
522,6.028,0.0135940190998895
523,6.036,0.0105005805037901
524,6.043,0.0106761905550971
525,6.051,0.0191234843051443
526,6.058,0.0105906369403578
527,6.066,0.0162867065532628
528,6.073,0.0230139223648676
529,6.081,0.0178897111241673
530,6.088,0.0167685084888998
531,6.096,0.0226627022622537
532,6.103,0.0186822077659628
533,6.111,0.0105951397621862
534,6.119,0.0195737664879827
535,6.126,0.0204878393191445
536,6.134,0.0198079132230586
537,6.141,0.0260758412081683
538,6.149,0.0163812658116589
539,6.156,0.028079596921799
540,6.164,0
541,6.171,0.0124232854245098
542,6.179,0.0219512564133691
543,6.186,0.0251662711988349
544,6.194,0.0183895243471179
545,6.201,0.0160930852146423
546,6.209,0.00619588283585557
547,6.216,0.0112930771455856
548,6.224,0.0177816434002861
549,6.232,0.0170431806204312
550,6.239,0.0166199153685632
551,6.247,0.0325013679572715
552,6.254,0.0096900725746811
553,6.262,0.0130671889459687
554,6.269,0.0169080959655797
555,6.277,0.0184075356344314
556,6.284,0.0150754474814277
557,6.292,0.0118244101213348
558,6.299,0.0249366272855873
559,6.307,0.0175204797342399
560,6.314,0.0136120303872031
561,6.322,0.00136885783582856
562,6.330,0.00378237033584207
563,6.337,0.010815778031777
564,6.345,0.0185876485075667
565,6.352,0.0146611878732164
566,6.360,0.0120090258162986
567,6.367,0.0176825813200617
568,6.375,0.0208165453126165
569,6.382,0.0257921634329802
570,6.390,0.00361576592819188
571,6.397,0.003746347761215
572,6.405,0.0106581792677835
573,6.412,0.0223835273088939
574,6.420,0.021937747947884
575,6.427,0.0166964633396457
576,6.435,0.00955048509800122
577,6.443,0.0157373622902
578,6.450,0.0129501155784307
579,6.458,0.0133238497901865
580,6.465,0.0174799543377844
581,6.473,0.00781239587224522
582,6.480,0.00514672534984224
583,6.488,0.0109418570429717
584,6.495,0.013364375186642
585,6.503,0.0192990943564513
586,6.510,0.0134814485541799
587,6.518,0.0178942139459957
588,6.525,0.00950995970154576
589,6.533,0.0119685004198431
590,6.541,0.02877303148337
591,6.548,0.0221178608210193
592,6.556,0.0205959070430257
593,6.563,0.0138641884095925
594,6.571,0.0112075235308463
595,6.578,0.00840226553176345
596,6.586,0.0247385031251385
597,6.593,0.0211722682370588
598,6.601,0.0157913961521406
599,6.608,0.0186867105877912
600,6.616,0.0198889640159695
601,6.623,0.0171422427006556
602,6.631,0.0213298670010522
603,6.638,0.0118784439832754
604,6.646,0.0190244222249199
605,6.654,0.015948994916134
606,6.661,0.0187857726680156
607,6.669,0.0217711435402338
608,6.676,0.0134949570196651
609,6.684,0.01303566919317
610,6.691,0.0101313491138627
611,6.699,0.011180506599876
612,6.706,0.0228968489973296
613,6.714,0.00400751142726124
614,6.721,0.0222889680504979
615,6.729,0.00677224402988865
616,6.736,0.0208615735309003
617,6.744,0.00547993416514261
618,6.752,0.0208390594217584
619,6.759,0.019753879361118
620,6.767,0.00661914808772361
621,6.774,0.0113426081856978
622,6.782,0.013517471128807
623,6.789,0.0220052902753097
624,6.797,0.0197133539646626
625,6.804,0.0239865318797984
626,6.812,0.0162236670476654
627,6.819,0.0184075356344314
628,6.827,0.0127970196362657
629,6.834,0.0124097769590247
630,6.842,0.0210642005131776
631,6.849,0.00455235286849563
632,6.857,0.0155347353079228
633,6.865,0.026706236264142
634,6.872,0.0150169107976587
635,6.880,0.0200105402053359
636,6.887,0.0130536804804835
637,6.895,0.0105005805037901
638,6.902,0.0162461811568074
639,6.910,0.0272375692398913
640,6.917,0.0226086684003131
641,6.925,0.0253643953592838
642,6.932,0.014445052425454
643,6.940,0.0262199315066766
644,6.947,0.0126259124067871
645,6.955,0.02008258535459
646,6.962,0.0144225383163121
647,6.970,0.0209201102146693
648,6.978,0.0166334238340483
649,6.985,0.0297096184236737
650,6.993,0.0174079091885303
651,7.000,0.0236218033116994
652,7.008,0.0134634372668664
653,7.015,0.0172413047808801
654,7.023,0.0391115104013383
655,7.030,0.0517194115208119
656,7.038,0.0487880745105343
657,7.045,0.0331362658350735
658,7.053,0.0323887974115619
659,7.060,0.0242476955458447
660,7.068,0.0282281900421356
661,7.076,0.0222934708723263
662,7.083,0.024851073670848
663,7.091,0.0238739613340888
664,7.098,0.013247301819104
665,7.106,0.0164082827426292
666,7.113,0.0247790285215939
667,7.121,0.021185776702544
668,7.128,0.0164893335355401
669,7.136,0.0236938484609535
670,7.143,0.0181463719683851
671,7.151,0.0246709607977127
672,7.158,0.0260082988807426
673,7.166,0.0266972306204852
674,7.173,0.0272285635962345
675,7.181,0.0312360750234957
676,7.189,0.0224240527053494
677,7.196,0.025720118283726
678,7.204,0.0278409473648946
679,7.211,0.0249501357510725
680,7.219,0.0195737664879827
681,7.226,0.0589329320898821
682,7.234,0.0538267321364953
683,7.241,0.0580638874770041
684,7.249,0.0466177143892535
685,7.256,0.0451768114041708
686,7.264,0.0207354945197056
687,7.271,0.0369006248836021
688,7.279,0.0237163625700954
689,7.287,0.0213748952193361
690,7.294,0.0165388645756523
691,7.302,0.0263144907650727
692,7.309,0.0222529454758708
693,7.317,0.0193846479711906
694,7.324,0.0217351209656067
