#"+EI TIC Scan IPA-ABS.d "
#Point,X(Minutes),Y(Counts)
0,2.095,0.263330813302203
1,2.102,0.261320963328736
2,2.110,0.222639219879655
3,2.117,0.228650784565395
4,2.125,0.230791027490161
5,2.132,0.219613204147791
6,2.140,0.195283677958906
7,2.148,0.187469093498311
8,2.155,0.169695185343688
9,2.163,0.18779732403089
10,2.170,0.164020843807859
11,2.178,0.170621424928776
12,2.185,0.164870646145634
13,2.193,0.145716371230711
14,2.200,0.138171565290044
15,2.208,0.155972451296659
16,2.215,0.149740567486311
17,2.223,0.110937423703262
18,2.230,0.13274002442215
19,2.238,0.14102672129262
20,2.246,0.131818281145728
21,2.253,0.119390483994355
22,2.261,0.113720638767191
23,2.268,0.117888716900087
24,2.276,0.103878219098467
25,2.283,0.110141577069473
26,2.291,0.106854775435011
27,2.298,0.120109893380831
28,2.306,0.0947462161988872
29,2.313,0.0974440013981722
30,2.321,0.0995302886189525
31,2.328,0.100694832563311
32,2.336,0.0982713221926195
33,2.343,0.0975339275714816
34,2.351,0.0947147420382289
35,2.359,0.10021822384477
36,2.366,0.0862751706731325
37,2.374,0.0871339656282382
38,2.381,0.0823274116648455
39,2.389,0.0848048777395222
40,2.396,0.0946517937169122
41,2.404,0.110011184118175
42,2.411,0.128068359718722
43,2.419,0.197581291686964
44,2.426,0.316202906899523
45,2.434,0.153436533209331
46,2.441,0.103203772798645
47,2.449,0.0905466639053336
48,2.457,0.0864730082544134
49,2.464,0.0726918221947328
50,2.472,0.0767654778456531
51,2.479,0.0747556278721858
52,2.487,0.0780019627286587
53,2.494,0.0816394764390279
54,2.502,0.0683034249372293
55,2.509,0.0689149229157339
56,2.517,0.0742070782149978
57,2.524,0.076329335905102
58,2.532,0.0703807195406787
59,2.539,0.0660687595304883
60,2.547,0.0712035440264606
61,2.554,0.0736450396318135
62,2.562,0.0814641204010743
63,2.570,0.0622738750168274
64,2.577,0.0638475830497437
65,2.585,0.0738024104351051
66,2.592,0.0627100169573785
67,2.600,0.0708168614812298
68,2.607,0.061455546839711
69,2.615,0.0625031867587667
70,2.622,0.0704301789359989
71,2.630,0.0638520793584091
72,2.637,0.0606776854405838
73,2.645,0.075344644307363
74,2.652,0.0626380760187309
75,2.660,0.0587892358010844
76,2.668,0.0555339083272806
77,2.675,0.0547245727674951
78,2.683,0.0588386951964046
79,2.690,0.0529305456099706
80,2.698,0.0460107265738047
81,2.705,0.0647378521655077
82,2.713,0.0631641441325915
83,2.720,0.0689284118417303
84,2.728,0.0630832105766129
85,2.735,0.0565590667030088
86,2.743,0.0697152658581884
87,2.750,0.0933973235992447
88,2.758,0.0559295834898423
89,2.765,0.0737889215091087
90,2.773,0.0673996668954688
91,2.781,0.0608890119478612
92,2.788,0.0848138703568531
93,2.796,0.0566894596543076
94,2.803,0.0627235058833749
95,2.811,0.0596884975341794
96,2.818,0.078478571447199
97,2.826,0.0583575901691988
98,2.833,0.0590050586170272
99,2.841,0.0506644060425712
100,2.848,0.063150655206595
101,2.856,0.0491266684789788
102,2.863,0.0476024198413828
103,2.871,0.060821567317879
104,2.879,0.0621254968308668
105,2.886,0.0483847775491755
106,2.894,0.0480565470165958
107,2.901,0.0686856111737947
108,2.909,0.070951750741194
109,2.916,0.0552416482640247
110,2.924,0.0719769091169223
111,2.931,0.0631101884286058
112,2.939,0.0503721459793154
113,2.946,0.0562982808004113
114,2.954,0.0719679164995913
115,2.961,0.173723877907954
116,2.969,3.32345554270311
117,2.976,24.9277420715915
118,2.984,68.7076520788728
119,2.992,100
120,2.999,7.64729929669639
121,3.007,0.130114180161513
122,3.014,0.0980824772286696
123,3.022,0.0910052873892121
124,3.029,0.0704571567879918
125,3.037,0.0707853873205714
126,3.044,0.0695174282769075
127,3.052,0.098909798023117
128,3.059,0.0665453682490286
129,3.067,0.0615859397910098
130,3.074,0.0806412959152924
131,3.082,0.0747781094155131
132,3.089,0.0436771423764232
133,3.097,0.0657045585285848
134,3.105,0.0530699311786003
135,3.112,0.0480520507079303
136,3.120,0.0470718554188568
137,3.127,0.061284687110423
138,3.135,0.0890763709717233
139,3.142,0.0855197908173327
140,3.150,0.03914935955029
141,3.157,0.0471393000488389
142,3.165,0.0646209481402053
143,3.172,0.0671748514621951
144,3.180,0.0519548466295625
145,3.187,0.049176127874299
146,3.195,0.0683124175545602
147,3.203,0.0378364374199713
148,3.210,0.0332771804331798
149,3.218,0.0484387332531612
150,3.225,0.0421214195781689
151,3.233,0.0413255729443799
152,3.240,0.0372609099107905
153,3.248,0.0370046203168585
154,3.255,0.0445044631708706
155,3.263,0.0573818911887907
156,3.270,0.0542344751229583
157,3.278,0.030287135170639
158,3.285,0.0324858301080562
159,3.293,0.0431375853365662
160,3.300,0.034405753908214
161,3.308,0.0256739224798617
162,3.316,0.0460377044257976
163,3.323,0.057696632795374
164,3.331,0.0428363326559794
165,3.338,0.0320137176981813
166,3.346,0.0422023531341475
167,3.353,0.0373643250100965
168,3.361,0.0435242678817971
169,3.368,0.018102138687202
170,3.376,0.0352825340979816
171,3.383,0.0429127699032925
172,3.391,0.0256784187885272
173,3.398,0.0269149036715328
174,3.406,0.0247521792034394
175,3.414,0.0191992380015778
176,3.421,0.0302331794666533
177,3.429,0.035390445505953
178,3.436,0.0287988570023668
179,3.444,0.0323644297740884
180,3.451,0.0258807526784736
181,3.459,0.0229446631199184
182,3.466,0.0240282735082979
183,3.474,0.0327376233933228
184,3.481,0.0156336652298562
185,3.489,0.0664464494583882
186,3.496,0.0862436965124742
187,3.504,0.0454981473859406
188,3.511,0.0280209956032396
189,3.519,0.0298420006127569
190,3.527,0.0209662873071095
191,3.534,0.0331108170125572
192,3.542,0.0260291308644342
193,3.549,0.0152694642279528
194,3.557,0.0311369375084137
195,3.564,0.0190014004202969
196,3.572,0.0171219433981284
197,3.579,0.0109080448224421
198,3.587,0.0130572803645391
199,3.594,0.00470313886408675
200,3.602,0.0197702692020932
201,3.609,0.0288663016323489
202,3.617,0.0131202286858558
203,3.625,0.0405387189279217
204,3.632,0.0129583615738987
205,3.640,0.0201479591299931
206,3.647,0.010026768324009
207,3.655,0.029824015378095
208,3.662,0.018821548073678
209,3.670,0.0130527840558736
210,3.677,0.0196308836334634
211,3.685,0.0166947940749083
212,3.692,0.018367420898465
213,3.700,0.0250264540320333
214,3.707,0.029482295919519
215,3.715,0.00917696598623428
216,3.722,0.0139160753196448
217,3.730,0.0153773756359242
218,3.738,0.0225534842660221
219,3.745,0.0131157323771903
220,3.753,0.0188440296170053
221,3.760,0.0134799333790938
222,3.768,0.0129133984872439
223,3.775,0.027049792931497
224,3.783,0.0164879638762965
225,3.790,0.0143926840381852
226,3.798,0.0245228674615001
227,3.805,0.0114206240103063
228,3.813,0.0158989474411193
229,3.820,0.0219105121268592
230,3.828,0.0159753846884323
231,3.835,0.0231784711705231
232,3.843,0.0133810145884533
233,3.851,0.0205211527492275
234,3.858,0.0144871065201601
235,3.866,0.022040905078158
236,3.873,0.00676694454153973
237,3.881,0.00965357470477462
238,3.888,0.016209192739037
239,3.896,0.0139790236409615
240,3.903,0.0158539843544645
241,3.911,0.00928937370287115
242,3.918,0.0175176185606902
243,3.926,0.0178503454019354
244,3.933,0.0240912218296145
245,3.941,0.0225444916486912
246,3.949,0.0175805668820069
247,3.956,0.0199321363140503
248,3.964,0.0083496451917869
249,3.971,0.0753716221593558
250,3.979,0.0533442060071943
251,3.986,0.0157280877118312
252,3.994,0.0285155895564418
253,4.001,0.0121040629274584
254,4.009,0.0235156943204338
255,4.016,0.0209438057637821
256,4.024,0.0172613289667582
257,4.031,0.0210786950237464
258,4.039,0.0151795380546433
259,4.046,0.0195004906821647
260,4.054,0.0159259252931121
261,4.062,0.0107102072411612
262,4.069,0.0207459681825012
263,4.077,0.0219015195095283
264,4.084,0.0283537224444848
265,4.092,0.0413435581790418
266,4.099,0.013434970292439
267,4.107,0.0205346416752239
268,4.114,0.0211776138143868
269,4.122,0.00519773281728899
270,4.129,0.0182325316385007
271,4.137,0.0175041296346938
272,4.144,0.0267530365595757
273,4.152,0.028668464051068
274,4.160,0.0295227626975082
275,4.167,0.0318788284382171
276,4.175,0.0211191618017356
277,4.182,0.0189384520989803
278,4.190,0.00605203146372922
279,4.197,0.0141948464569043
280,4.205,0.00495493214935335
281,4.212,0.0194914980648337
282,4.220,0.0262224721370496
283,4.227,0.0196578614854563
284,4.235,0.0128144796966035
285,4.242,0.00267530365595757
286,4.250,0.0119646773588287
287,4.257,0.00647468447828386
288,4.265,0.0175221148693557
289,4.273,0.0133630293537914
290,4.280,0.00950519651881395
291,4.288,0.0223646393020722
292,4.295,0.00742790191536454
293,4.303,0.020165944364655
294,4.310,0.0103145320785994
295,4.318,0.0283132556664955
296,4.325,0.00927588477687473
297,4.333,0.00097120267174258
298,4.340,0.0172073732627725
299,4.348,0.0100987092626566
300,4.355,0.0152424863759599
301,4.363,0.0254670922812499
302,4.371,0.0128594427832582
303,4.378,0.00470313886408675
304,4.386,0.0108001334144707
305,4.393,0.00896563947895696
306,4.401,0.0142847726302138
307,4.408,0.0165913789756024
308,4.416,0.065668588059261
309,4.423,0.131750836515746
310,4.431,0.045956770869819
311,4.438,0.0269059110542018
312,4.446,0.0240642439776217
313,4.453,0.00697827104881705
314,4.461,0.0294283402155333
315,4.468,0.0201299738953312
316,4.476,0.0175715742646759
317,4.484,0.0135743558610687
318,4.491,0.0136957561950366
319,4.499,0.0118747511855192
320,4.506,0.0120006478281525
321,4.514,0.00886672068831651
322,4.521,0.0182325316385007
323,4.529,0.0108450965011255
324,4.536,0.0224230913147234
325,4.544,0.00821475593182265
326,4.551,0.0124547750033655
327,4.559,0.0135968374043961
328,4.566,0.0163305930730049
329,4.574,0.0110564230084028
330,4.582,0.0106517552285101
331,4.589,0.00786854016458108
332,4.597,0.0108990522051112
333,4.604,0.0138756085416556
334,4.612,0.00961760423545082
335,4.619,0.0113262015283313
336,4.627,0.0319372804508683
337,4.634,0.0258627674438117
338,4.642,0.0191902453842469
339,4.649,0.0110789045517302
340,4.657,0.0177694118459568
341,4.664,0.00376790666166797
342,4.672,0.00947372235815563
343,4.679,0.0148423149047327
344,4.687,0.00787303647324656
345,4.695,0.0121715075574406
346,4.702,0.0265327174349674
347,4.710,0.0264742654223162
348,4.717,0.0100897166453257
349,4.725,0.00237405097537075
350,4.732,0.00515726603929972
351,4.740,0.0104943844252184
352,4.747,0.0132371327111581
353,4.755,0
354,4.762,0.0167217719269012
355,4.770,0.0215463111249557
356,4.777,0.0162136890477025
357,4.785,0.01424880216089
358,4.792,0.0152604716106218
359,4.800,0.0161867111957097
360,4.808,0.0172568326580927
361,4.815,0.00389829961296674
362,4.823,0.010489888116553
363,4.830,0.0201479591299931
364,4.838,0.0204177376499215
365,4.845,0.00730650158139672
366,4.853,0.0166858014575774
367,4.860,0.0164295118636453
368,4.868,0.0201839295993168
369,4.875,0.00526068113860564
370,4.883,0.0114341129363027
371,4.890,0.0116094689742562
372,4.898,0.0231290117752029
373,4.906,0.0196713504114527
374,4.913,0.0144601286681673
375,4.921,0.0112182901203599
376,4.928,0.0212720362963618
377,4.936,0.0116184615915872
378,4.943,0.00982443443406267
379,4.951,0.0114251203189717
380,4.958,0.0200984997346728
381,4.966,0.0136507931083818
382,4.973,0.00945573712349373
383,4.981,0.0182550131818281
384,4.988,0.0252737510086344
385,4.996,0.00721657540808722
386,5.003,0.0108720743531183
387,5.011,0.0157056061685038
388,5.019,0.00880377236699986
389,5.026,0.0161957038130406
390,5.034,0.0102470874486173
391,5.041,0.00556643012785793
392,5.049,0.00665004051623738
393,5.056,0.0144960991374911
394,5.064,0.0144871065201601
395,5.071,0.0108855632791147
396,5.079,0.00462670161677368
397,5.086,0.0300892975893581
398,5.094,0.0185607621710804
399,5.101,0.00107911407971398
400,5.109,0.0166992903835738
401,5.117,0.00642072877429816
402,5.124,0.0288752942496798
403,5.132,0.0171893880281106
404,5.139,0.0171534175587868
405,5.147,0.0169825578294987
406,5.154,0.00658709219492074
407,5.162,0.000179852346618996
408,5.169,0.010301043152603
409,5.177,0.00743239822403002
410,5.184,0.00519323650862352
411,5.192,0.00770667305262399
412,5.199,0.0138935937763175
413,5.207,0.0170544987681463
414,5.214,0.0151705454373123
415,5.222,0.0267890070288995
416,5.230,0.0138756085416556
417,5.237,0.0155302501305503
418,5.245,0.013520400157083
419,5.252,0.0237495023710384
420,5.260,0.0131157323771903
421,5.267,0.0156381615385217
422,5.275,0.0183179615031448
423,5.282,0.00702773044413728
424,5.290,0.0146399810147863
425,5.297,0.00721657540808722
426,5.305,0.0151435675853195
427,5.312,0.0129583615738987
428,5.320,0.0176659967466509
429,5.328,0.021312503074351
430,5.335,0.00470763517275223
431,5.343,0.0253187140952892
432,5.350,0.0162136890477025
433,5.358,0.00494144322335692
434,5.365,0.0163665635423287
435,5.373,0.00618692072369347
436,5.380,0.0140329793449472
437,5.388,0.0128234723139344
438,5.395,0.00554394858453056
439,5.403,0.0209168279117893
440,5.410,0.00271577043394684
441,5.418,0.0180751608352091
442,5.425,0.0197927507454205
443,5.433,0.0157955323418133
444,5.441,0.0222387426594389
445,5.448,0.0100672351019983
446,5.456,0.0210966802584083
447,5.463,0.0301522459106747
448,5.471,0.0417752038109273
449,5.478,0.0231604859358612
450,5.486,0.0276478019840052
451,5.493,0.0229491594285839
452,5.501,0.015678628316511
453,5.508,0.0125222196333476
454,5.516,0.0211551322710594
455,5.523,0.0212090879750451
456,5.531,0.0202288926859716
457,5.538,0.0188575185430018
458,5.546,0.0105888069071934
459,5.554,0.00403768518159646
460,5.561,0.00426699692353568
461,5.569,0.0229941225152387
462,5.576,0.016038333009749
463,5.584,0.00361053585837635
464,5.591,0.0049099690626986
465,5.599,0.013880104850321
466,5.606,0.016029340392418
467,5.614,0.0228502406379435
468,5.621,0.0100852203366602
469,5.629,0.0339920935109903
470,5.636,0.0195499500774849
471,5.644,0.00902409149160813
472,5.652,0.0200580329566836
473,5.659,0.0132910884151438
474,5.667,0.0158045249591443
475,5.674,0.0106472589198446
476,5.682,0.0260830865684199
477,5.689,0.019522972225492
478,5.697,0.0134304739837735
479,5.704,0.0152469826846254
480,5.712,0.0224725507100436
481,5.719,0.0270363040055006
482,5.727,0.0384569280158069
483,5.734,0.0293698882028821
484,5.742,0.0414154991176894
485,5.749,0.0197073208807765
486,5.757,0.0202288926859716
487,5.765,0.019702824572111
488,5.772,0.015413346105248
489,5.780,0.01666331991425
490,5.787,0.0294508217588606
491,5.795,0.0140734461229365
492,5.802,0.0112227864290254
493,5.810,0.00633979521831962
494,5.817,0.0164385044809763
495,5.825,0.0124862491640238
496,5.832,0.0106742367718374
497,5.840,0.0108136223404671
498,5.847,0.026150531198402
499,5.855,0.0180886497612055
500,5.863,0.0220094309174997
501,5.870,0.0173377662140712
502,5.878,0.0172793142014201
503,5.885,0.0241316886076038
504,5.893,0.0224815433273745
505,5.900,0.00362852109303825
506,5.908,0.0145680400761387
507,5.915,0.0153908645619206
508,5.923,0.0178143749326116
509,5.930,0.0310335224091078
510,5.938,0.0141858538395733
511,5.945,0.0160922887137347
512,5.953,0.00853399384707137
513,5.960,0.00894315793562959
514,5.968,0.0120770850754656
515,5.976,0.0194555275955099
516,5.983,0.0211596285797249
517,5.991,0.0154762944265646
518,5.998,0.0172478400407617
519,6.006,0.0151300786593231
520,6.013,0.0182999762684829
521,6.021,0.0119376995068359
522,6.028,0.0340820196842998
523,6.036,0.0376970518513416
524,6.043,0.0248600906114107
525,6.051,0.0216901930022509
526,6.058,0.0209797762331059
527,6.066,0.0297745559827748
528,6.074,0.0180706645265436
529,6.081,0.0220768755474818
530,6.089,0.0315236200536446
531,6.096,0.0273735271554112
532,6.104,0.0187001477397101
533,6.111,0.0181471017738567
534,6.119,0.0302961277879699
535,6.126,0.0362312552263968
536,6.134,0.0763338322137675
537,6.141,0.0751243251827547
538,6.149,0.0531868352039027
539,6.156,0.0333895881498166
540,6.164,0.0241496738422657
541,6.171,0.0306738177158698
542,6.179,0.0309480925444638
543,6.187,0.0207279829478393
544,6.194,0.0331917505685358
545,6.202,0.0260201382471033
546,6.209,0.00808436298052388
547,6.217,0.0244689117575144
548,6.224,0.0356152609392267
549,6.232,0.0327511123193192
550,6.239,0.0234167755297933
551,6.247,0.0315461015969719
552,6.254,0.0207729460344941
553,6.262,0.0288573090150179
554,6.269,0.0190913265936064
555,6.277,0.0308851442231471
556,6.285,0.0254131365772642
557,6.292,0.0121805001747715
558,6.300,0.014968211547366
559,6.307,0.0190913265936064
560,6.315,0.00652414387360409
561,6.322,0.0234752275424445
562,6.330,0.0190014004202969
563,6.337,0.0327061492326645
564,6.345,0.0132011622418343
565,6.352,0.0210517171717535
566,6.360,0.0253681734906094
567,6.367,0.0163395856903358
568,6.375,0.0238034580750241
569,6.382,0.0183764135157959
570,6.390,0.0248690832287417
571,6.398,0.0245183711528347
572,6.405,0.00894315793562959
573,6.413,0.0256874114058581
574,6.420,0.0254536033552534
575,6.428,0.0172568326580927
576,6.435,0.0110744082430647
577,6.443,0.0146444773234518
578,6.450,0.0199591141660431
579,6.458,0.0191857490755814
580,6.465,0.0194959943734992
581,6.473,0.0106382663025136
582,6.480,0.0109575042177623
583,6.488,0.0114700834056265
584,6.495,0.0185922363317387
585,6.503,0.0182595094904936
586,6.511,0.0259212194564628
587,6.518,0.0185068064670947
588,6.526,0.0186956514310447
589,6.533,0.0168521648781999
590,6.541,0.0214518886429808
591,6.548,0.018538280627753
592,6.556,0.0369326793782109
593,6.563,0.0438120316363875
594,6.571,0.0368292642789049
595,6.578,0.0239473399523193
596,6.586,0.0257818338878331
597,6.593,0.0292709694122416
598,6.601,0.0421483974301618
599,6.609,0.034311331426239
600,6.616,0.054373860691588
601,6.624,0.0402104883953421
602,6.631,0.0394775900828697
603,6.639,0.0355478163092446
604,6.646,0.030988559322453
605,6.654,0.0301882163799985
606,6.661,0.0307007955678627
607,6.669,0.0319687546115266
608,6.676,0.0185113027757602
609,6.684,0.0216542225329271
610,6.691,0.0106247773765172
611,6.699,0.0234392570731207
612,6.706,0.02750392010671
613,6.714,0.0211686211970559
614,6.722,0.0145410622241458
615,6.729,0.0141903501482388
616,6.737,0.0171669064847832
617,6.744,0.0189789188769696
618,6.752,0.0192397047795671
619,6.759,0.0223871208453996
620,6.767,0.0192846678662219
621,6.774,0.0172478400407617
622,6.782,0.00774264352194779
623,6.789,0.0198961658447265
624,6.797,0.0120950703101275
625,6.804,0.0171714027934487
626,6.812,0.0203053299332847
627,6.820,0.0130977471425284
628,6.827,0.0165823863582715
629,6.835,0.010215613287959
630,6.842,0.0200535366480181
631,6.850,0.0253771661079404
632,6.857,0.00771566566995494
633,6.865,0.0215598000509522
634,6.872,0.0281603811718693
635,6.880,0.0444010480715647
636,6.887,0.0416897739462833
637,6.895,0.0362717220043861
638,6.902,0.0244374375968561
639,6.910,0.0174007145353879
640,6.917,0.0251073875880119
641,6.925,0.0125536937940059
642,6.933,0.0205975899965405
643,6.940,0.0319103025988754
644,6.948,0.0300803049720271
645,6.955,0.0419955229355356
646,6.963,0.0268924221282054
647,6.970,0.0135608669350723
648,6.978,0.0300668160460307
649,6.985,0.027229645278116
650,6.993,0.0278906026519408
651,7.000,0.0393067303535816
652,7.008,0.032341948230761
653,7.015,0.0295767184014939
654,7.023,0.0760100979898533
655,7.031,0.150329583921488
656,7.038,0.140100481707533
657,7.046,0.0842113649956795
658,7.053,0.0653538464526777
659,7.061,0.0371979615894739
660,7.068,0.0399991618880648
661,7.076,0.043636675598434
662,7.083,0.034140471696951
663,7.091,0.0437535796237363
664,7.098,0.0434073638564947
665,7.106,0.0398822578627624
666,7.113,0.037813955876644
667,7.121,0.0292844583382381
668,7.128,0.0309840630137876
669,7.136,0.0280884402332217
670,7.144,0.0407860159045229
671,7.151,0.0423552276287736
672,7.159,0.0647738226348315
673,7.166,0.101697509395711
674,7.174,0.100721810415303
675,7.181,0.0758212530259033
676,7.189,0.0561274210711232
677,7.196,0.0518199573695983
678,7.204,0.0445764041095182
679,7.211,0.0433219339918507
680,7.219,0.0655202098733003
681,7.226,0.151507616791842
682,7.234,0.225462901721574
683,7.241,0.201627969485891
684,7.249,0.133140195893377
685,7.257,0.086099814635179
686,7.264,0.0763113506704401
687,7.272,0.0739417960037348
688,7.279,0.0627684689700297
689,7.287,0.0545806908901999
690,7.294,0.0650211196114326
691,7.302,0.0535645251318025
692,7.309,0.0513568375770544
693,7.317,0.0516311124056483
