#"+EI TIC Scan IPA-PA.d "
#Point,X(Minutes),Y(Counts)
0,2.095,0.249613430707877
1,2.102,0.225795728339066
2,2.110,0.211031848194241
3,2.117,0.19401978547288
4,2.125,0.194007567089311
5,2.132,0.186847594318386
6,2.140,0.183438665302878
7,2.147,0.160231882112474
8,2.155,0.150159861257811
9,2.163,0.142665919336024
10,2.170,0.141440008184688
11,2.178,0.133441039742085
12,2.185,0.131991124892
13,2.193,0.1362594135518
14,2.200,0.12599597135457
15,2.208,0.129176823876807
16,2.215,0.121186001023249
17,2.223,0.106198117179675
18,2.230,0.106711289289536
19,2.238,0.103958080192184
20,2.245,0.105656435508154
21,2.253,0.107338499646033
22,2.260,0.0961708970647614
23,2.268,0.0901472339656727
24,2.276,0.101836154245852
25,2.283,0.0956373609822864
26,2.291,0.0882493117180896
27,2.298,0.0942566836390875
28,2.306,0.086050002675826
29,2.313,0.0869460174708223
30,2.321,0.0862373512238707
31,2.328,0.0892227096090174
32,2.336,0.0890475794445409
33,2.343,0.0768699238216367
34,2.351,0.0757417597388459
35,2.358,0.0798960101520105
36,2.366,0.0749434920123947
37,2.374,0.0766947936571601
38,2.381,0.0775134253562249
39,2.389,0.072308393956201
40,2.396,0.0743570096011243
41,2.404,0.0768902877942502
42,2.411,0.109855486661068
43,2.419,0.196471607775551
44,2.426,0.320985081923855
45,2.434,0.136511926812208
46,2.441,0.0649936549934131
47,2.449,0.0650140189660266
48,2.456,0.0624400128276736
49,2.464,0.067034125049291
50,2.471,0.0645415748013922
51,2.479,0.0559031776187234
52,2.487,0.0622037907453564
53,2.494,0.0653235513497526
54,2.502,0.0562290011805402
55,2.509,0.0538545619738
56,2.517,0.0558787408515871
57,2.524,0.0548483238373414
58,2.532,0.0598700794838433
59,2.539,0.0572634909893087
60,2.547,0.0471670333675095
61,2.554,0.0557199018652014
62,2.562,0.0561556908791314
63,2.569,0.0613770134572462
64,2.577,0.071282049736478
65,2.585,0.0605298721965224
66,2.592,0.0502786483828603
67,2.600,0.0543351517274799
68,2.607,0.0547627951523645
69,2.615,0.0428295072008229
70,2.622,0.0339182327851325
71,2.630,0.052799708192418
72,2.637,0.0405487422681051
73,2.645,0.042617721885642
74,2.652,0.0526286508224642
75,2.660,0.0513783029039921
76,2.667,0.0510484065476525
77,2.675,0.0466416428740799
78,2.682,0.0542088950972758
79,2.690,0.0471833245456003
80,2.698,0.0615480708272
81,2.705,0.0411311518848526
82,2.713,0.0406016885969003
83,2.720,0.0432856601873665
84,2.728,0.0433141697490254
85,2.735,0.040634270953082
86,2.743,0.0538708531518909
87,2.750,0.0593283978123229
88,2.758,0.0566932997561292
89,2.765,0.0490120092862973
90,2.773,0.0369198823483701
91,2.780,0.0588396624695976
92,2.788,0.0549664348785
93,2.796,0.0593202522232774
94,2.803,0.0415139945699874
95,2.811,0.0483807261352772
96,2.818,0.0554470246321798
97,2.826,0.0551130554813176
98,2.833,0.0392250840482242
99,2.841,0.0412777724876702
100,2.848,0.044572663256543
101,2.856,0.060269213347069
102,2.863,0.0445319353113159
103,2.871,0.0474073282443494
104,2.878,0.0452731839144492
105,2.886,0.0502379204376332
106,2.893,0.0402066275281974
107,2.901,0.0391802833084744
108,2.909,0.045541988352948
109,2.916,0.0502419932321559
110,2.924,0.0534513553160517
111,2.931,0.0409397305422853
112,2.939,0.0582328160857137
113,2.946,0.0477779525459161
114,2.954,0.0343621673881079
115,2.961,0.199538422051152
116,2.969,3.74445804667308
117,2.976,23.5196471200496
118,2.984,65.3578035516886
119,2.991,100
120,2.999,11.0129626460392
121,3.006,0.102732169040848
122,3.014,0.0720232983396113
123,3.022,0.0674821324467891
124,3.029,0.0556751011254516
125,3.037,0.0530644398363942
126,3.044,0.055064181947045
127,3.052,0.0688709553790334
128,3.059,0.0570231961124688
129,3.067,0.0381172839380469
130,3.074,0.0550682547415677
131,3.082,0.0489142622177523
132,3.089,0.0295033235225144
133,3.097,0.0443730963249302
134,3.104,0.0503763954514053
135,3.112,0.0342318379633812
136,3.120,0.0377914603762301
137,3.127,0.0321872951129805
138,3.135,0.0481037761077329
139,3.142,0.061295557566792
140,3.150,0.0242779281498769
141,3.157,0.0272144130007511
142,3.165,0.0476435503266666
143,3.172,0.0341300181003134
144,3.180,0.0383820155820231
145,3.187,0.029719181632218
146,3.195,0.0351319255529002
147,3.202,0.0248725561501926
148,3.210,0.0250313951365783
149,3.217,0.0188651842291947
150,3.225,0.0305255949477147
151,3.233,0.028538071220632
152,3.240,0.0275565277406588
153,3.248,0.0241761082868091
154,3.255,0.0309939663178264
155,3.263,0.0259477739041882
156,3.270,0.046991903203033
157,3.278,0.0181483723931977
158,3.285,0.0267867695758665
159,3.293,0.0262613790824369
160,3.300,0.0244286215472172
161,3.308,0.0370257750059605
162,3.315,0.0280126807272023
163,3.323,0.0353274196899903
164,3.331,0.0321465671677534
165,3.338,0.0176352002833362
166,3.346,0.0248644105611472
167,3.353,0.0251698701503505
168,3.361,0.0196960343118276
169,3.368,0.0168898788856802
170,3.376,0.0188977665853764
171,3.383,0.020070731407917
172,3.391,0.0136234976784664
173,3.398,0.0170813002282475
174,3.406,0.0126786093491976
175,3.413,0.0160834655701835
176,3.421,0.0155010559534359
177,3.428,0.0159164809947524
178,3.436,0.0126093718423115
179,3.444,0.0130125785000598
180,3.451,0.0236751545605157
181,3.459,0.0212070410797532
182,3.466,0.0127519196506064
183,3.474,0.0247788818761703
184,3.481,0.0197489806406229
185,3.489,0.0514108852601738
186,3.496,0.0705285827497765
187,3.504,0.0238299207523787
188,3.511,0.0117703761706331
189,3.519,0.00632912268829201
190,3.526,0.016906170063771
191,3.534,0.00994576422445887
192,3.542,8.55286849769191E-05
193,3.549,0.0100027833477768
194,3.557,0.0107562503344782
195,3.564,0.0141733249390323
196,3.572,0.000358405917998518
197,3.579,0.0243308744786721
198,3.587,0.00966474140239185
199,3.594,0.00725771983946999
200,3.602,0.00725771983946999
201,3.609,0.00367773345400752
202,3.617,0.0121002725269727
203,3.624,0.00256178775478486
204,3.632,0.0048792078382071
205,3.639,0.00913935090896221
206,3.647,0.0077708919493315
207,3.655,0.00392617391989286
208,3.662,0.0190240232155804
209,3.670,0.0166455112143175
210,3.677,0.0117377938144515
211,3.685,0.0115178629102251
212,3.692,0.00989689069018635
213,3.700,0.00858137805935088
214,3.707,0.00735546690801504
215,3.715,0.00863432438814611
216,3.722,0.0204372829149609
217,3.730,0.255258323916354
218,3.737,1.22655465287043
219,3.745,2.51634351350046
220,3.753,3.90116696152341
221,3.760,2.77856631605065
222,3.768,0.366571871016552
223,3.775,0.25848397717834
224,3.783,0.192146299992433
225,3.790,0.163188730935962
226,3.798,0.139676488156354
227,3.805,0.128618851027195
228,3.813,0.109757739592523
229,3.820,0.0996490635871561
230,3.828,0.092814914378048
231,3.835,0.0885099705675431
232,3.843,0.0821564111121148
233,3.850,0.0701661040372553
234,3.858,0.0825881273315221
235,3.866,0.0670992897616544
236,3.873,0.0726586542851541
237,3.881,0.0545754466043198
238,3.888,0.0659589072952954
239,3.896,0.0560172158653593
240,3.903,0.0571820350988545
241,3.911,0.05099953301338
242,3.918,0.0462791641615586
243,3.926,0.0707810960101846
244,3.933,0.0592102867711643
245,3.941,0.0482218871488915
246,3.948,0.0685654957898301
247,3.956,0.06420760565053
248,3.963,0.06551497269232
249,3.971,0.102874716849143
250,3.979,0.0638166173763497
251,3.986,0.036569622019417
252,3.994,0.0397708385142674
253,4.001,0.0200829497914851
254,4.009,0.0240661428346959
255,4.016,0.0276013284804086
256,4.024,0.0320651112772992
257,4.031,0.017708510584745
258,4.039,0.0293241205635151
259,4.046,0.0250965598489417
260,4.054,0.0353192741009449
261,4.061,0.0253898010545768
262,4.069,0.0329203981270684
263,4.077,0.0239235950264011
264,4.084,0.0253938738490995
265,4.092,0.0229379787519052
266,4.099,0.0193865019281017
267,4.107,0.0320243833320721
268,4.114,0.0225388448886795
269,4.122,0.0270555740143654
270,4.129,0.0206979417644144
271,4.137,0.0191258430786482
272,4.144,0.0303056640434883
273,4.152,0.0331525474148629
274,4.159,0.0142303440623502
275,4.167,0.0279923167545888
276,4.174,0.0247300083418977
277,4.182,0.0188000195168314
278,4.190,0.0179773150232438
279,4.197,0.0211663131345261
280,4.205,0.0251861613284413
281,4.212,0.0229298331628597
282,4.220,0.0109395260880002
283,4.227,0.00665494625010885
284,4.235,0.0245508053828985
285,4.242,0.0180628437082208
286,4.250,0.0183357209412424
287,4.257,0.0248033186433065
288,4.265,0.0194109386952379
289,4.272,0.0108539974030233
290,4.280,0.00841032068939704
291,4.288,0.00315641575510058
292,4.295,0.0100760936491856
293,4.303,0.0202499343669163
294,4.310,0.0146294779255759
295,4.318,0.00996205540254971
296,4.325,0.0267826967813438
297,4.333,0.0271125931376833
298,4.340,0.0136886623908298
299,4.348,0.0145398764460762
300,4.355,0.0275728189187496
301,4.363,0.0073025205792198
302,4.370,0.00454116589282213
303,4.378,0.00966066860786914
304,4.385,0.020718305737028
305,4.393,0.0157128412686168
306,4.401,0.0116481923349518
307,4.408,0.0260373753836878
308,4.416,0.0776967011097469
309,4.423,0.149292356024474
310,4.431,0.0510891344928797
311,4.438,0.0220134543952499
312,4.446,0.0123894409380851
313,4.453,0.0134076395687627
314,4.461,0.0133628388290129
315,4.468,0.0174763612969505
316,4.476,0.0113386599512258
317,4.483,0.0143362367199407
318,4.491,0.00524168655072833
319,4.499,0.00189792224758306
320,4.506,0.0157332052412304
321,4.514,0.0268193519320482
322,4.521,0.020844562367232
323,4.529,0.0352255998269225
324,4.536,0.0136316432675118
325,4.544,0.0137660454867613
326,4.551,0.0114119702526346
327,4.559,0.0111065106634313
328,4.566,0.0106707216495013
329,4.574,0.0171912656803607
330,4.581,0.0170731546392021
331,4.589,0.00636170504447369
332,4.596,0.0247707362871248
333,4.604,0.00409723128984669
334,4.612,0.0133017469111723
335,4.619,0.0179488054615849
336,4.627,0.0240417060675597
337,4.634,0.0172808671598604
338,4.642,0.0118355408829965
339,4.649,0.0173582502557919
340,4.657,0.0124871880066302
341,4.664,0.0135990609113301
342,4.672,0.0064798160856323
343,4.679,0.0155865846384128
344,4.687,0.0140144859526466
345,4.694,0.00913935090896221
346,4.702,0.0120595445817456
347,4.709,0.0156395309672081
348,4.717,0.00448007397498148
349,4.725,0.0169468980089981
350,4.732,0.0123731497599943
351,4.740,0.0191869349964888
352,4.747,0.00910676855278053
353,4.755,0.0161404846935014
354,4.762,0.012996287321969
355,4.770,0.0247422267254659
356,4.777,0.0114241886362028
357,4.785,0.00744099559299196
358,4.792,0.0192358085307614
359,4.800,0.0130451608562415
360,4.807,0.0156802589124352
361,4.815,0.0019142134256739
362,4.823,0.0046063306051855
363,4.830,0.0172686487762922
364,4.838,0.023263802313722
365,4.845,0.0293037565909016
366,4.853,0.0185882342016504
367,4.860,0.0162830325017963
368,4.868,0.0177166561737904
369,4.875,0.0281063550012247
370,4.883,0.0223840786968165
371,4.890,0.258536923507135
372,4.898,4.02049169544978
373,4.905,8.87336484427304
374,4.913,2.3937931263121
375,4.920,0.401231352404818
376,4.928,0.249654158653104
377,4.936,0.185442480208051
378,4.943,0.146347725584554
379,4.951,0.11021796537359
380,4.958,0.0930022629260927
381,4.966,0.0890190698828819
382,4.973,0.0672459103644719
383,4.981,0.0558257945227919
384,4.988,0.0716730380106582
385,4.996,0.0616784002519268
386,5.003,0.0577074255922841
387,5.011,0.0562575107421992
388,5.018,0.0465438958055348
389,5.026,0.0428824535296181
390,5.034,0.048327779806482
391,5.041,0.0383657244039323
392,5.049,0.0367528977729389
393,5.056,0.0363619094987587
394,5.064,0.0504415601637687
395,5.071,0.040789037144945
396,5.079,0.0419049828441676
397,5.086,0.0197163982844412
398,5.094,0.036667369087962
399,5.101,0.0426951049815735
400,5.109,0.0291774999606975
401,5.116,0.0384023795546367
402,5.124,0.0242412729991725
403,5.131,0.0270800107815017
404,5.139,0.0178754951601761
405,5.147,0.0289249867002895
406,5.154,0.0271981218226603
407,5.162,0.0384756898560455
408,5.169,0.0275768917132723
409,5.177,0.0247585179035567
410,5.184,0.02748321743925
411,5.192,0.0174519245298142
412,5.199,0.0243308744786721
413,5.207,0.0274384166995002
414,5.214,0.0263754173290728
415,5.222,0.0239887597387644
416,5.229,0.0252024525065321
417,5.237,0.0555895724404747
418,5.245,0.0591084669080965
419,5.252,0.0411352246793754
420,5.260,0.0205309571889833
421,5.267,0.0367895529236433
422,5.275,0.0107766143070918
423,5.282,0.0213047881482983
424,5.290,0.0158105883371619
425,5.297,0.0166943847485901
426,5.305,0.0174478517352915
427,5.312,0.0273691791926141
428,5.320,0.0177288745573585
429,5.327,0.0172605031872468
430,5.335,0.026428363657868
431,5.342,0.0129555593767419
432,5.350,0.0193417011883518
433,5.358,0.0139208116786243
434,5.365,0.0141163058157144
435,5.373,0.0083166464153747
436,5.380,0.0169672619816117
437,5.388,0.0190769695443757
438,5.395,0.0178551311875625
439,5.403,0.0246444796569208
440,5.410,0.0342399835524266
441,5.418,0.0256463871095076
442,5.425,0.0270922291650698
443,5.433,0.032631229715956
444,5.440,0.0208404895727093
445,5.448,0
446,5.456,0.017989533406812
447,5.463,0.024571169355512
448,5.471,0.0454360956953576
449,5.478,0.0402229187062882
450,5.486,0.0286032359329954
451,5.493,0.0174111965845871
452,5.501,0.0128374483355833
453,5.508,0.0149145735421656
454,5.516,0.013024796883628
455,5.523,0.0211907499016624
456,5.531,0.0176148363107226
457,5.538,0.0157087684740941
458,5.546,0.0213047881482983
459,5.553,0.0266768041237533
460,5.561,0.0177207289683131
461,5.569,0.0077301640041044
462,5.576,0.0208201256000957
463,5.584,0.013713099157966
464,5.591,0.0278864240969983
465,5.599,0.0182135371055611
466,5.606,0.0191136246950801
467,5.614,0.049170848272683
468,5.621,0.101897246163692
469,5.629,0.0537975428504821
470,5.636,0.0585790036201441
471,5.644,0.060366960415614
472,5.651,0.0379665905407066
473,5.659,0.024261636971786
474,5.666,0.0338449224837237
475,5.674,0.0288313124262671
476,5.682,0.0212151866687986
477,5.689,0.0290675345085844
478,5.697,0.029621434563673
479,5.704,0.0183357209412424
480,5.712,0.0208486351617547
481,5.719,0.0266482945620944
482,5.727,0.0392332296372696
483,5.734,0.0371683228142554
484,5.742,0.0376733493350715
485,5.749,0.01625859573466
486,5.757,0.0238462119304696
487,5.764,0.0162097222003875
488,5.772,0.0221641477925902
489,5.780,0.0325253370583655
490,5.787,0.0276054012749313
491,5.795,0.0150082478161879
492,5.802,0.0224533162037026
493,5.810,0.0215410102306155
494,5.817,0.0127559924451291
495,5.825,0.0240417060675597
496,5.832,0.00651239844181398
497,5.840,0.0179732422287211
498,5.847,0.0211215123947763
499,5.855,0.0195209041473511
500,5.862,0.0252146708901003
501,5.870,0.0217894506965008
502,5.877,0.0247422267254659
503,5.885,0.0163644883922505
504,5.893,0.00586075131818031
505,5.900,0.0146987154324619
506,5.908,0.0190688239553302
507,5.915,0.0164785266388864
508,5.923,0.0131429079247866
509,5.930,0.0133832028016265
510,5.938,0.0232475111356311
511,5.945,0.0228524500669282
512,5.953,0.00698484260644839
513,5.960,0.00335190989219069
514,5.968,0.0211988954907078
515,5.975,0.0475010025183718
516,5.983,0.0533861906036883
517,5.991,0.020632777052051
518,5.998,0.0361989977178503
519,6.006,0.0389847891713843
520,6.013,0.0491341931219786
521,6.021,0.0465031678603077
522,6.028,0.0489712813410702
523,6.036,0.0489020438341842
524,6.043,0.0449432875581096
525,6.051,0.0231294000944725
526,6.058,0.0300164956323759
527,6.066,0.0173256678996102
528,6.073,0.0157576420083667
529,6.081,0.0258703908082567
530,6.088,0.0285869447549045
531,6.096,0.0243390200677175
532,6.104,0.0209586006138679
533,6.111,0.0250843414653735
534,6.119,0.0344436232785621
535,6.126,0.048454036436686
536,6.134,0.0694126370505539
537,6.141,0.0567055181396973
538,6.149,0.0483766533407545
539,6.156,0.0368587904305294
540,6.164,0.0235122427796073
541,6.171,0.0294259404265829
542,6.179,0.0235407523412663
543,6.186,0.0180709892972662
544,6.194,0.0249417936570787
545,6.202,0.0298291470843312
546,6.209,0.039677164240245
547,6.217,0.0295766338239232
548,6.224,0.0227587757929059
549,6.232,0.0239235950264011
550,6.239,0.0271696122610013
551,6.247,0.0287335653577221
552,6.254,0.0222578220666125
553,6.262,0.0201603328874166
554,6.269,0.0226406647517473
555,6.277,0.0152200331313689
556,6.284,0.015725059652185
557,6.292,0.0271003747541152
558,6.299,0.0272755049185918
559,6.307,0.0262858158495731
560,6.315,0.0211459491619126
561,6.322,0.0324357355788659
562,6.330,0.0346431902101749
563,6.337,0.0221600749980675
564,6.345,0.024444912725308
565,6.352,0.023825847957856
566,6.360,0.0330792371134541
567,6.367,0.0241598171087183
568,6.375,0.0225917912174748
569,6.382,0.0312057516330073
570,6.390,0.0186981996537636
571,6.397,0.0188122379003995
572,6.405,0.0312464795782344
573,6.412,0.0296784536869909
574,6.420,0.0348753394979694
575,6.428,0.0263672717400273
576,6.435,0.0238299207523787
577,6.443,0.0243593840403311
578,6.450,0.0184090312426512
579,6.458,0.0288435308098353
580,6.465,0.0211988954907078
581,6.473,0.0208119800110503
582,6.480,0.0212477690249803
583,6.488,0.0298943117966946
584,6.495,0.0196878887227822
585,6.503,0.0119047783898826
586,6.510,0.0237199553002656
587,6.518,0.0245100774376714
588,6.526,0.0206735049972782
589,6.533,0.0249865943968285
590,6.541,0.0228768868340645
591,6.548,0.0245508053828985
592,6.556,0.0254346017943266
593,6.563,0.0247625906980794
594,6.571,0.0183642305029013
595,6.578,0.0174193421736325
596,6.586,0.0214188263949342
597,6.593,0.0284281057685188
598,6.601,0.0239358134099692
599,6.608,0.0198426549146452
600,6.616,0.0258296628630296
601,6.623,0.0254549657669402
602,6.631,0.0337797577713603
603,6.639,0.0362356528685547
604,6.646,0.0431268212009808
605,6.654,0.025092487054419
606,6.661,0.022392224285862
607,6.669,0.023825847957856
608,6.676,0.0209586006138679
609,6.684,0.0250273223420556
610,6.691,0.0230235074368821
611,6.699,0.0117377938144515
612,6.706,0.0225469904777249
613,6.714,0.0255079120957354
614,6.721,0.0307210890848048
615,6.729,0.0235040971905619
616,6.737,0.0294055764539693
617,6.744,0.0265790570552083
618,6.752,0.0159612817345022
619,6.759,0.0303178824270565
620,6.767,0.0226325191627019
621,6.774,0.0263591261509819
622,6.782,0.0244978590541032
623,6.789,0.0242412729991725
624,6.797,0.0223392779570667
625,6.804,0.0139656124183741
626,6.812,0.0231904920123132
627,6.819,0.00855694129221462
628,6.827,0.0156639677343443
629,6.834,0.025218743684623
630,6.842,0.014641696309144
631,6.850,0.0227099022586334
632,6.857,0.0116807746911335
633,6.865,0.0213943896277979
634,6.872,0.0202662255450071
635,6.880,0.0302649360982612
636,6.887,0.0133750572125811
637,6.895,0.0256952606437801
638,6.902,0.0364392925946902
639,6.910,0.110718919099883
640,6.917,0.182086497521338
641,6.925,0.112286944991127
642,6.932,0.0598985890455023
643,6.940,0.0465642597781484
644,6.948,0.0394938884867231
645,6.955,0.0476842782718937
646,6.963,0.043277514598321
647,6.970,0.0406424165421274
648,6.978,0.0304156294956015
649,6.985,0.0364596565673038
650,6.993,0.0394775973086322
651,7.000,0.0389114788699755
652,7.008,0.0277398034941807
653,7.015,0.0364637293618265
654,7.023,0.0732695734635607
655,7.030,0.164496097977752
656,7.038,0.136133156921596
657,7.045,0.0725853439837453
658,7.053,0.0579110653184196
659,7.061,0.0398115664594945
660,7.068,0.0464624399150806
661,7.076,0.0356002969230119
662,7.083,0.0227384118202923
663,7.091,0.0352907645392859
664,7.098,0.0304563574408286
665,7.106,0.0295359058786961
666,7.113,0.0338286313056328
667,7.121,0.0212762785866393
668,7.128,0.0345372975525845
669,7.136,0.0468208458330791
670,7.143,0.0341096541276999
671,7.151,0.0517815095617404
672,7.159,0.0717992946408622
673,7.166,0.098117692846617
674,7.174,0.0736279793815592
675,7.181,0.0658163594870006
676,7.189,0.0439698896671818
677,7.196,0.0462832369560813
678,7.204,0.0509791690407665
679,7.211,0.0483685077517091
680,7.219,0.0668386309122009
681,7.226,0.15057935909365
682,7.234,0.236670089714703
683,7.241,0.17598952412084
684,7.249,0.124293543244077
685,7.256,0.0855449761550099
686,7.264,0.0742674081216247
687,7.272,0.0557850665775648
688,7.279,0.0681785803101726
689,7.287,0.0451469272842451
690,7.294,0.0495740549304314
691,7.302,0.0431105300228899
692,7.309,0.0486210210121171
693,7.317,0.0528933824664404
694,7.324,0.0423204078854841
695,7.332,0.0407971827339904
