#"+EI TIC Scan IPA-End-Blank.d "
#Point,X(Minutes),Y(Counts)
0,2.095,0.247987416080097
1,2.102,0.223658587931667
2,2.110,0.205088639866517
3,2.117,0.212973982934542
4,2.125,0.201445764753304
5,2.132,0.189579404097443
6,2.140,0.180174162896059
7,2.147,0.167687293369239
8,2.155,0.171441720639028
9,2.163,0.165501568301311
10,2.170,0.155817446708485
11,2.178,0.144348490610428
12,2.185,0.148956989079009
13,2.193,0.133419865270791
14,2.200,0.122975794611285
15,2.208,0.114776711102887
16,2.215,0.13495022141883
17,2.223,0.123045514709145
18,2.230,0.115860858624618
19,2.238,0.120828415597181
20,2.245,0.1191690772681
21,2.253,0.128448822293336
22,2.261,0.119367779547003
23,2.268,0.109335057464873
24,2.276,0.0985946763894597
25,2.283,0.102481571845184
26,2.291,0.101184778024978
27,2.298,0.114435082623371
28,2.306,0.091716788735519
29,2.313,0.0944289005422934
30,2.321,0.0800874764123836
31,2.328,0.111158238023926
32,2.336,0.0912113180260302
33,2.343,0.0895171196480195
34,2.351,0.0921839133911845
35,2.358,0.0829982904980605
36,2.366,0.0882656438914231
37,2.374,0.0860834048283887
38,2.381,0.0971444983539608
39,2.389,0.096105668895839
40,2.396,0.0920549312101425
41,2.404,0.0993267374169952
42,2.411,0.117349382713941
43,2.419,0.228019580052843
44,2.426,0.360090361430033
45,2.434,0.160115690741586
46,2.441,0.0945892567673726
47,2.449,0.0823812676319949
48,2.456,0.0807044992784493
49,2.464,0.0682490037956667
50,2.472,0.0835734813054098
51,2.479,0.0632082407203508
52,2.487,0.072812184200638
53,2.494,0.0764829473529946
54,2.502,0.0732409628024802
55,2.509,0.0763853392159898
56,2.517,0.0560584446847541
57,2.524,0.0712713700379204
58,2.532,0.0777239650949119
59,2.539,0.0606913451875859
60,2.547,0.0738998177272622
61,2.554,0.0771557462973486
62,2.562,0.0731921587339778
63,2.569,0.0610399456768886
64,2.577,0.0675901488708848
65,2.585,0.064825746990715
66,2.592,0.0693924134005793
67,2.600,0.0612491059704701
68,2.607,0.062828266187011
69,2.615,0.0577840171068021
70,2.622,0.0676738129883174
71,2.630,0.0631454926322764
72,2.637,0.0810600717775379
73,2.645,0.0696852378115935
74,2.652,0.0701628204819381
75,2.660,0.0512372999176989
76,2.667,0.0568079357367548
77,2.675,0.0678446272280757
78,2.682,0.0614826682983029
79,2.690,0.0578049331361602
80,2.698,0.0578572232095556
81,2.705,0.0596560017343572
82,2.713,0.0609946276132792
83,2.720,0.0508294373452148
84,2.728,0.0611758998677166
85,2.735,0.0611445258236793
86,2.743,0.0777867131829864
87,2.750,0.0791113950423363
88,2.758,0.070553253029957
89,2.765,0.0759217005652173
90,2.773,0.0665373753931909
91,2.780,0.0818757969225061
92,2.788,0.0782991559022612
93,2.796,0.0664118792170419
94,2.803,0.0594015233771662
95,2.811,0.0539215236853291
96,2.818,0.0736244233407131
97,2.826,0.0749874512538863
98,2.833,0.0568602258101501
99,2.841,0.063365110940537
100,2.848,0.0639856198114957
101,2.856,0.0649233551277197
102,2.863,0.0466601754931555
103,2.871,0.0603497167080694
104,2.878,0.0678481132329687
105,2.886,0.0569090298786525
106,2.893,0.0552183175055348
107,2.901,0.0701767645015102
108,2.909,0.0576620069355462
109,2.916,0.0537995135140732
110,2.924,0.0610329736671025
111,2.931,0.0675308867877033
112,2.939,0.0717838127571953
113,2.946,0.0490934069084878
114,2.954,0.0515370963384992
115,2.961,0.190367241203267
116,2.969,3.56556598269972
117,2.976,23.4157109987603
118,2.984,62.2531764738036
119,2.991,100
120,2.999,23.4785288069326
121,3.007,0.174913781512482
122,3.014,0.100086686483675
123,3.022,0.0912392060651744
124,3.029,0.0852641936785275
125,3.037,0.069754957909454
126,3.044,0.072149843270963
127,3.052,0.0964472973753555
128,3.059,0.0751338634593934
129,3.067,0.0626713959668248
130,3.074,0.0807254153078074
131,3.082,0.060963253569242
132,3.089,0.0599244241111202
133,3.097,0.0557656202737399
134,3.104,0.0591993350933707
135,3.112,0.0516172744510388
136,3.120,0.0493269692363206
137,3.127,0.0635603272145465
138,3.135,0.0750536853468538
139,3.142,0.0864424633323704
140,3.150,0.0480197174014357
141,3.157,0.044328038219721
142,3.165,0.0467856716693045
143,3.172,0.0712399959938832
144,3.180,0.0482707097537336
145,3.187,0.0485182161011385
146,3.195,0.0520634830773461
147,3.202,0.0303596166133651
148,3.210,0.0343371481963079
149,3.218,0.044199056038679
150,3.225,0.0474863586528027
151,3.233,0.0387992344593815
152,3.240,0.0382972497547857
153,3.248,0.0349437130476945
154,3.255,0.0364287511321237
155,3.263,0.0563861291446986
156,3.270,0.0650035332402593
157,3.278,0.0395556975211682
158,3.285,0.0431009644973758
159,3.293,0.0292998711258851
160,3.300,0.0316633824433569
161,3.308,0.0326603798427624
162,3.315,0.0436203792264367
163,3.323,0.0476746029170261
164,3.331,0.0371538401498731
165,3.338,0.0332216266305396
166,3.346,0.0283760798292332
167,3.353,0.0366518554452773
168,3.361,0.034340634201201
169,3.368,0.0221117290364651
170,3.376,0.0342534840788753
171,3.383,0.0384192599260416
172,3.391,0.0289408126219034
173,3.398,0.0254373777044121
174,3.406,0.0270130519160599
175,3.413,0.0229100241569681
176,3.421,0.0362997689510817
177,3.429,0.0346927206953966
178,3.436,0.0309522374451795
179,3.444,0.0205534848492824
180,3.451,0.0311579117338681
181,3.459,0.0295857235271133
182,3.466,0.035539819884402
183,3.474,0.0286410162011032
184,3.481,0.0267794895882272
185,3.489,0.0581639916401419
186,3.496,0.0891580611440378
187,3.504,0.039538267496703
188,3.511,0.0353864356691088
189,3.519,0.0364566391712679
190,3.526,0.0213657239893575
191,3.534,0.0179877852480151
192,3.542,0.0227357239123168
193,3.549,0.0273407363760044
194,3.557,0.0204105586486683
195,3.564,0.0282470976481912
196,3.572,0.0193403551465093
197,3.579,0.0261276066732313
198,3.587,0.022097785016893
199,3.594,0.0328172500629485
200,3.602,0.0108449612222045
201,3.609,0.0270618559845623
202,3.617,0.0322037132017759
203,3.624,0.0268805837301249
204,3.632,0.0150246810889429
205,3.639,0.0123648593555639
206,3.647,0.0120511189151915
207,3.655,0.0192601770339697
208,3.662,0.0145192103794541
209,3.670,0.0230494643526892
210,3.677,0.025691856061603
211,3.685,0.0140520857237886
212,3.692,0.0160669965519577
213,3.700,0.0153697955733525
214,3.707,0.0130097702607737
215,3.715,0.0339536876580751
216,3.722,0.0163981670167952
217,3.730,0.0185420600260063
218,3.737,0.0247227467013417
219,3.745,0.0187581923293739
220,3.753,0.0242068179771738
221,3.760,0.0170709659611492
222,3.768,0.0173219583134471
223,3.775,0.0190614747550672
224,3.783,0.0184165638498574
225,3.790,0.0222511692321862
226,3.798,0.0256395659882076
227,3.805,0.0254861817729145
228,3.813,0.0271176320628507
229,3.820,0.0187407623049088
230,3.828,0.0105660808307624
231,3.835,0.00795157716099273
232,3.843,0.0222546552370792
233,3.850,0.0387295143615209
234,3.858,0.0154534596907851
235,3.866,0.0219234847722417
236,3.873,0.0234085228566708
237,3.881,0.0181690575024525
238,3.888,0.0160181924834553
239,3.896,0.0285294640445263
240,3.903,0.0131213224173506
241,3.911,0.0165724672614465
242,3.918,0.0225753676872376
243,3.926,0.0311265376898308
244,3.933,0.0164992611586929
245,3.941,0.0135989050876952
246,3.948,0.017304528288982
247,3.956,0.0146830526094263
248,3.964,0.01850022796729
249,3.971,0.0698455940366727
250,3.979,0.0671404542396844
251,3.986,0.0205918309031057
252,3.994,0.0169977598583957
253,4.001,0.0249075049606721
254,4.009,0.0168443756431025
255,4.016,0.0180087012773733
256,4.024,0.016370278977651
257,4.031,0.0228856221227169
258,4.039,0.0183119837030666
259,4.046,0.0132224165592483
260,4.054,0.0208184212211524
261,4.061,0.00566824395606058
262,4.069,0.0307151891124537
263,4.077,0.0120999229836939
264,4.084,0.0123962333996011
265,4.092,0.0306454690145932
266,4.099,0.0212506858278876
267,4.107,0.0203303805361287
268,4.114,0.0344173263088475
269,4.122,0.0160460805225995
270,4.129,0.0187233322804437
271,4.137,0.029414909287355
272,4.144,0.020501194775887
273,4.152,0.0285817541179217
274,4.159,0.0257476321398914
275,4.167,0.0252247314059375
276,4.175,0.0273163343417532
277,4.182,0.0229274541814332
278,4.190,0.0317121865118592
279,4.197,0.0249005329508861
280,4.205,0.020372212594845
281,4.212,0.0186710422070483
282,4.220,0.0259707364530451
283,4.227,0.0196227215428444
284,4.235,0.0314054180812729
285,4.242,0.0149828490302266
286,4.250,0.019573917474342
287,4.257,0.00932854909373808
288,4.265,0.0202048843599798
289,4.272,0.0175241465972426
290,4.280,0.00953422338242662
291,4.288,0.0165724672614465
292,4.295,0.0100013480380921
293,4.303,0.0106602029628741
294,4.310,0.0211077596272736
295,4.318,0.0207905331820082
296,4.325,0.0148399228296125
297,4.333,0.00528826942272073
298,4.340,0.00462941449793878
299,4.348,0.0122184471500568
300,4.355,0.009318091079059
301,4.363,0.00718814208942
302,4.370,0.0247192606964487
303,4.378,0.0184932559575039
304,4.385,0.0141984979292957
305,4.393,0.0201281922523332
306,4.401,0.0121591850668753
307,4.408,0.0256291079735285
308,4.416,0.0625807598396061
309,4.423,0.133754521740522
310,4.431,0.0585997422517702
311,4.438,0.0125984216833966
312,4.446,0.0332913467284001
313,4.453,0.0243985482462903
314,4.461,0.0214493881067901
315,4.468,0.0189603806131694
316,4.476,0.0244055202560763
317,4.483,0.0164190830461533
318,4.491,0.0101059281848829
319,4.499,0.00529872743739981
320,4.506,0.0158857242975203
321,4.514,0.023558421067071
322,4.521,0.0144006862130912
323,4.529,0.0188592864712717
324,4.536,0.0226660038144563
325,4.544,0.0129539941824853
326,4.551,0.0187198462755506
327,4.559,0.0139091595231745
328,4.566,0.0207242990890407
329,4.574,0.00614234062151214
330,4.581,0.0175346046119217
331,4.589,0.0252386754255096
332,4.596,0.0191974289458952
333,4.604,0.020096818208296
334,4.612,0.00839429978240706
335,4.619,0.0131561824662808
336,4.627,0.0174160804455588
337,4.634,0.0171302280443307
338,4.642,0.00670707341418239
339,4.649,0.0187407623049088
340,4.657,0.0233492607734894
341,4.664,0.0118872766852193
342,4.672,0.0122533071989871
343,4.679,0.0203478105605939
344,4.687,0.00556017780437677
345,4.694,0.0149305589568312
346,4.702,0.0173812203966286
347,4.710,0.0229239681765402
348,4.717,0.0222197951881489
349,4.725,0.0100919841653108
350,4.732,0.0175520346363869
351,4.740,0.023565393076857
352,4.747,0.00957954144603596
353,4.755,0.0068953176784058
354,4.762,0.0124380654583174
355,4.770,0.011047149506
356,4.777,0.00699641182030356
357,4.785,0.00994208595491069
358,4.792,0.0190998208088905
359,4.800,0.0245833065056207
360,4.807,0.0179947572578012
361,4.815,0.0176182687293544
362,4.823,0.0116920604112098
363,4.830,0.0118210425922518
364,4.838,0.0202013983550868
365,4.845,0.0242103039820669
366,4.853,0.0187093882608716
367,4.860,0.0154918057446084
368,4.868,0.0205151387954591
369,4.875,0.0134280908479369
370,4.883,0.0272605582634648
371,4.890,0.00828274762583022
372,4.898,0.013839439425314
373,4.905,0.0191451388724998
374,4.913,0.0158578362583761
375,4.921,0.0107020350215904
376,4.928,0.0136930272198069
377,4.936,0.0154151136369618
378,4.943,0.0119709408026519
379,4.951,0.00127936379574061
380,4.958,0.00832109367965351
381,4.966,0.0184200498547504
382,4.973,0.00943661524542189
383,4.981,0.0049919590068135
384,4.988,0.0203303805361287
385,4.996,0.00687440164904764
386,5.003,0.0228403040591076
387,5.011,0.00656066120867529
388,5.018,0.0218886247233114
389,5.026,0.0126088796980757
390,5.034,0.0143972002081982
391,5.041,0.0158299482192319
392,5.049,0.0159205843464506
393,5.056,0.00579374013220952
394,5.064,0.0206824670303244
395,5.071,0.0186013221091877
396,5.079,0.0100675821310596
397,5.086,0.0150804571672313
398,5.094,0.0166875054229164
399,5.101,0.0130237142803458
400,5.109,0.0177472509103963
401,5.116,0.0164888031440139
402,5.124,0.00515231523189271
403,5.132,0.0145749864577425
404,5.139,0
405,5.147,0.00799689522460208
406,5.154,0.0110576075206791
407,5.162,0.0248691589068488
408,5.169,0.0178588030669732
409,5.177,0.00982704779344082
410,5.184,0.00732409628024802
411,5.192,0.0197342736994213
412,5.199,0.00535450351568822
413,5.207,0.0100571241163806
414,5.214,0.017565978655959
415,5.222,0.0131108644026715
416,5.229,0.0136302791317324
417,5.237,0.0142856480516213
418,5.245,0.0131213224173506
419,5.252,0.0238059274144758
420,5.260,0.0172626962302657
421,5.267,0.0130690323439552
422,5.275,0.00819908350839759
423,5.282,0.00694760775180119
424,5.290,0.0150177090791568
425,5.297,0.020898599333692
426,5.305,0.0165480652271953
427,5.312,0.0130341722950249
428,5.320,0.0111029255842884
429,5.327,0.0158961823121994
430,5.335,0.0181969455415967
431,5.342,0.0117687525188564
432,5.350,0.0110122894570697
433,5.358,0.0126925438155083
434,5.365,0.0142647320222632
435,5.373,0.0132781926375367
436,5.380,0.0138324674155279
437,5.388,0.0169698718192515
438,5.395,0.0123578873457778
439,5.403,0.0154151136369618
440,5.410,0.0118768186705402
441,5.418,0.00772150083805301
442,5.425,0.0246146805496579
443,5.433,0.0150072510644777
444,5.440,0.00277834589974187
445,5.448,0.00914379083440769
446,5.456,0.0104545286741855
447,5.463,0.0140172256748583
448,5.471,0.019305495097579
449,5.478,0.0283656218145541
450,5.486,0.0260509145655847
451,5.493,0.0177925689740057
452,5.501,0.0206998970547895
453,5.508,0.0185211439966481
454,5.516,0.0111552156576838
455,5.523,0.0134803809213323
456,5.531,0.0102837144344273
457,5.538,0.0196680396064538
458,5.546,0.0190823907844254
459,5.553,0.0133862587892206
460,5.561,0.012915648128662
461,5.569,0.0104615006839716
462,5.576,0.0100745541408457
463,5.584,0.0133409407256112
464,5.591,0.0160879125813159
465,5.599,0.00949587732860334
466,5.606,0.00789928708759734
467,5.614,0.0171476580687958
468,5.621,0.0028620100171745
469,5.629,0.0148747828785427
470,5.636,0.0190056986767788
471,5.644,0.0107647831096649
472,5.651,0.0112841978387258
473,5.659,0.0060029004257911
474,5.667,0.0148747828785427
475,5.674,0.0214912201655064
476,5.682,0.0106358009286229
477,5.689,0.0124450374681035
478,5.697,0.0145680144479564
479,5.704,0.0257615761594635
480,5.712,0.0188104824027693
481,5.719,0.0211879377398132
482,5.727,0.0343232041767358
483,5.734,0.0356165119920486
484,5.742,0.023955825624876
485,5.749,0.0158055461849807
486,5.757,0.0217387265129113
487,5.764,0.0171337140492237
488,5.772,0.0178797190963313
489,5.780,0.0239418816053039
490,5.787,0.0157462841017993
491,5.795,0.00787488505334616
492,5.802,0.0117060044307819
493,5.810,0.0177228488761451
494,5.817,0.0101861062974225
495,5.825,0.0115247321763446
496,5.832,0.0161959787329997
497,5.840,0.0221256730560372
498,5.847,0.019430991273728
499,5.855,0.0235200750132477
500,5.862,0.0196575815917747
501,5.870,0.0148678108687567
502,5.878,0.0116606863671726
503,5.885,0.0169803298339306
504,5.893,0.00454575038050615
505,5.900,0.0198597698755702
506,5.908,0.0127552919035828
507,5.915,0.0141218058216491
508,5.923,0.00883702240382139
509,5.930,0.00223452913642979
510,5.938,0.0122742232283452
511,5.945,0.011183103696828
512,5.953,0.014913128932366
513,5.960,0.0131213224173506
514,5.968,0.0121731290864474
515,5.975,0.0195774034792351
516,5.983,0.022892594132503
517,5.991,0.00427732800374313
518,5.998,0.0152896174608129
519,6.006,0.0190928487991044
520,6.013,0.0211391336713108
521,6.021,0.0212541718327807
522,6.028,0.0235026449887826
523,6.036,0.0212262837936365
524,6.043,0.0336190311883446
525,6.051,0.0360452905938908
526,6.058,0.0309661814647516
527,6.066,0.0231261564603357
528,6.073,0.0184583959085737
529,6.081,0.0267027974805806
530,6.088,0.0156207879256503
531,6.096,0.0222790572713304
532,6.104,0.0182527216198851
533,6.111,0.0256047059392773
534,6.119,0.0116537143573865
535,6.126,0.0380323133829157
536,6.134,0.0562885210076939
537,6.141,0.0664641692904373
538,6.149,0.0534822870688078
539,6.156,0.0387957484544884
540,6.164,0.0333680388360467
541,6.171,0.0349262830232294
542,6.179,0.0206441209765011
543,6.186,0.0185978361042947
544,6.194,0.0208637392847617
545,6.202,0.0307117031075607
546,6.209,0.0215400242340088
547,6.217,0.0182701516443502
548,6.224,0.0226450877850981
549,6.232,0.0273860544396137
550,6.239,0.0256186499588495
551,6.247,0.0233422887637034
552,6.254,0.0226938918536005
553,6.262,0.0230912964114055
554,6.269,0.0235061309936756
555,6.277,0.0279786752714282
556,6.284,0.0127518058986898
557,6.292,0.0225230776138422
558,6.299,0.0157532561115853
559,6.307,0.0161715766987485
560,6.315,0.0316703544531429
561,6.322,0.0326359778085112
562,6.330,0.0142542740075841
563,6.337,0.0128738160699457
564,6.345,0.0226416017802051
565,6.352,0.0207242990890407
566,6.360,0.0230215763135449
567,6.367,0.00807358733224865
568,6.375,0.0129888542314156
569,6.382,0.0175380906168148
570,6.390,0.0188488284565926
571,6.397,0.0198702278902493
572,6.405,0.0240185737129504
573,6.413,0.00731015226067592
574,6.420,0.0175834086804241
575,6.428,0.00489783687470179
576,6.435,0.00857905804173745
577,6.443,0.0153941976076036
578,6.450,0.0188313984321275
579,6.458,0.023025062318438
580,6.465,0.0175834086804241
581,6.473,0.0320607870011618
582,6.480,0.0265250112310363
583,6.488,0.0141740958950445
584,6.495,0.0193264111269372
585,6.503,0.0143518821445888
586,6.510,0.0266505074071852
587,6.518,0.0155371238082177
588,6.526,0.0285364360543124
589,6.533,0.0220350369288185
590,6.541,0.0126088796980757
591,6.548,0.0175973526999962
592,6.556,0.0160077344687763
593,6.563,0.00928671703502176
594,6.571,0.0102209663463528
595,6.578,0.0174892865483124
596,6.586,0.0259672504481521
597,6.593,0.0169559277996794
598,6.601,0.0136511951610906
599,6.608,0.0120476329102985
600,6.616,0.0106358009286229
601,6.624,0.0144494902815935
602,6.631,0.0316424664139987
603,6.639,0.0286619322304613
604,6.646,0.0206476069813941
605,6.654,0.0356165119920486
606,6.661,0.0203094645067706
607,6.669,0.0128145539867643
608,6.676,0.0257476321398914
609,6.684,0.0214528741116832
610,6.691,0.0124624674925686
611,6.699,0.0225474796480934
612,6.706,0.023697861262792
613,6.714,0.0145366404039192
614,6.721,0.023561907071964
615,6.729,0.0190998208088905
616,6.737,0.0207033830596825
617,6.744,0.0129644521971644
618,6.752,0.0187337902951227
619,6.759,0.0122323911696289
620,6.767,0.0124764115121407
621,6.774,0.0243846042267182
622,6.782,0.0194519073030861
623,6.789,0.0206754950205383
624,6.797,0.01490615692258
625,6.804,0.0182248335807409
626,6.812,0.0259323903992218
627,6.819,0.0246111945447649
628,6.827,0.0260718305949429
629,6.834,0.0191521108822859
630,6.842,0.0165585232418744
631,6.850,0.0168060295892793
632,6.857,0.0263053929227756
633,6.865,0.0344208123137406
634,6.872,0.0175380906168148
635,6.880,0.029024476739336
636,6.887,0.0290837388225175
637,6.895,0.0259881664775102
638,6.902,0.0252665634646538
639,6.910,0.0189290065691322
640,6.917,0.024621652559444
641,6.925,0.0213761820040366
642,6.932,0.0237745533704386
643,6.940,0.0230215763135449
644,6.948,0.0288501764946847
645,6.955,0.0211844517349201
646,6.963,0.0210938156077015
647,6.970,0.0186640701972622
648,6.978,0.0279298712029258
649,6.985,0.0319004307760826
650,6.993,0.0324233315100366
651,7.000,0.0315727463161382
652,7.008,0.0261589807172685
653,7.015,0.0399705321034383
654,7.023,0.068953176784058
655,7.030,0.134246048430438
656,7.038,0.13562999237297
657,7.045,0.080265262661928
658,7.053,0.0692390291852861
659,7.061,0.0467542976252672
660,7.068,0.0547721088792275
661,7.076,0.0446661806943445
662,7.083,0.0337305833449214
663,7.091,0.0369760539003288
664,7.098,0.0333819828556188
665,7.106,0.024489184373509
666,7.113,0.0319283188152269
667,7.121,0.0398310919077172
668,7.128,0.044986893144503
669,7.136,0.0294288533069271
670,7.143,0.027689336865307
671,7.151,0.0401064862942663
672,7.159,0.0685662302409321
673,7.166,0.0983855160958781
674,7.174,0.0832806568943956
675,7.181,0.0667186476476282
676,7.189,0.0572959764217784
677,7.196,0.0561421088021868
678,7.204,0.0413231020019324
679,7.211,0.0420481910196819
680,7.219,0.0482985977928778
681,7.226,0.122362257750112
682,7.234,0.192239225830822
683,7.241,0.190119734855862
684,7.249,0.144118414287489
685,7.256,0.109139841190864
686,7.264,0.0818479088833619
687,7.272,0.0583487498994723
688,7.279,0.0621415232230848
689,7.287,0.0565046533110615
690,7.294,0.0637415994689838
691,7.302,0.0477024909561704
692,7.309,0.0474619566185515
693,7.317,0.0357245781437324
