#"+EI TIC Scan IPA-Blank2.d "
#Point,X(Minutes),Y(Counts)
0,2.095,0.244604861924829
1,2.102,0.223050750227004
2,2.110,0.220038529648116
3,2.117,0.20807332012642
4,2.125,0.200408892209025
5,2.132,0.177871625183369
6,2.140,0.178101725366478
7,2.147,0.177658259559031
8,2.155,0.167638442494534
9,2.162,0.164002859601403
10,2.170,0.161082679095758
11,2.178,0.15426334639633
12,2.185,0.155300889040169
13,2.193,0.155430581870649
14,2.200,0.142749969961467
15,2.208,0.14897104218481
16,2.215,0.142888030071333
17,2.223,0.132546072750482
18,2.230,0.121045247234698
19,2.238,0.111314101309011
20,2.245,0.109247383300718
21,2.253,0.123220739875006
22,2.260,0.118116699449667
23,2.268,0.10164989361841
24,2.275,0.116978749453198
25,2.283,0.105352414746627
26,2.291,0.111552568771506
27,2.298,0.100482658144091
28,2.306,0.097892985174185
29,2.313,0.101185509612498
30,2.321,0.0824930074646173
31,2.328,0.106235162721829
32,2.336,0.0869946037741785
33,2.343,0.0929646576159479
34,2.351,0.105222721916147
35,2.358,0.0928977193808615
36,2.366,0.0848860493689565
37,2.373,0.0821332144510278
38,2.381,0.0890194853855425
39,2.388,0.073820322381234
40,2.396,0.0844760526790522
41,2.404,0.110335129620872
42,2.411,0.140252337064805
43,2.419,0.312906963551127
44,2.426,0.338234718251948
45,2.434,0.126655508062878
46,2.441,0.0936507745255836
47,2.449,0.089207749171723
48,2.456,0.0755439819347091
49,2.464,0.091316303576945
50,2.471,0.0728873707297171
51,2.479,0.0880572482561753
52,2.486,0.0719962554751293
53,2.494,0.0766317282548633
54,2.502,0.0791837484675328
55,2.509,0.0825808638981682
56,2.517,0.0794347668491068
57,2.524,0.0801292510381283
58,2.532,0.0726781887450721
59,2.539,0.0793510940552488
60,2.547,0.0866138925621245
61,2.554,0.0862833850263854
62,2.562,0.0888228543199761
63,2.569,0.0802673111479941
64,2.577,0.075715511162118
65,2.584,0.0715235041898315
66,2.592,0.0679548595317871
67,2.599,0.070448308788756
68,2.607,0.0732346128242279
69,2.615,0.0746863357976645
70,2.622,0.0683481216629198
71,2.630,0.059696354778001
72,2.637,0.0638548926327444
73,2.645,0.0739793006895642
74,2.652,0.0603950226067154
75,2.660,0.0693187260716728
76,2.667,0.0739500152117139
77,2.675,0.0619513365724745
78,2.682,0.0641854001684835
79,2.690,0.0610393031194222
80,2.697,0.0628550027461411
81,2.705,0.0581484080916277
82,2.713,0.0644447858294434
83,2.720,0.0708834073168177
84,2.728,0.0561862810756573
85,2.735,0.0584872829067527
86,2.743,0.0709419782725183
87,2.750,0.0808111843080712
88,2.758,0.0708332036405029
89,2.765,0.0672185389458366
90,2.773,0.0608970593698635
91,2.780,0.0703144323185832
92,2.788,0.07508378156849
93,2.795,0.0626751062393464
94,2.803,0.0576129022109364
95,2.810,0.0615622580810348
96,2.818,0.0679046558554723
97,2.826,0.0671683352695218
98,2.833,0.0551236365936605
99,2.841,0.0473588013236367
100,2.848,0.0759163258673773
101,2.856,0.0646874369316316
102,2.863,0.0650681481436856
103,2.871,0.0713143222051864
104,2.878,0.059148297978231
105,2.886,0.0580061643420691
106,2.893,0.0710884056617698
107,2.901,0.075338983589757
108,2.908,0.0685698545666435
109,2.916,0.0735609367202742
110,2.924,0.0741759317551306
111,2.931,0.0697956609966635
112,2.939,0.0527347783290141
113,2.946,0.0511157097678615
114,2.954,0.0611689959499021
115,2.961,0.393877126167528
116,2.969,6.32874237447993
117,2.976,31.0016737905683
118,2.984,71.224198238922
119,2.991,100
120,2.999,6.63063799835934
121,3.006,0.153305292906656
122,3.014,0.123392269102415
123,3.021,0.0996417465658175
124,3.029,0.0866013416430458
125,3.037,0.0787235481013137
126,3.044,0.0895508076265409
127,3.052,0.119785971687135
128,3.059,0.0906050848291519
129,3.067,0.0794975214445003
130,3.074,0.0870531747298791
131,3.082,0.0664696674408074
132,3.089,0.0700926994148594
133,3.097,0.074832763186916
134,3.104,0.0653693702015744
135,3.112,0.0539020138033335
136,3.119,0.0508772423053662
137,3.127,0.0681765924355109
138,3.135,0.0985916530028994
139,3.142,0.0944833188244709
140,3.150,0.0612777705819175
141,3.157,0.0608845084507848
142,3.165,0.072176151981924
143,3.172,0.06905515677102
144,3.180,0.0670721115565851
145,3.187,0.0691764823221142
146,3.195,0.0618174601023017
147,3.202,0.0680552668844167
148,3.210,0.0533455897241777
149,3.217,0.0552073093875185
150,3.225,0.0512412189586486
151,3.232,0.0431667943513501
152,3.240,0.0447147410377234
153,3.248,0.0465722770613713
154,3.255,0.119313220401837
155,3.263,0.582647132750904
156,3.270,0.86258283188228
157,3.278,0.289783986968464
158,3.285,0.0688208729482176
159,3.293,0.049915005175999
160,3.300,0.0450787176910057
161,3.308,0.0510153024152319
162,3.315,0.0582153463267141
163,3.323,0.0628801045842985
164,3.330,0.0443172952668978
165,3.338,0.0312099521090397
166,3.345,0.0390835620110789
167,3.353,0.0248550034155234
168,3.361,0.0363767471297722
169,3.368,0.0418866006053225
170,3.376,0.0347032912526118
171,3.383,0.0413678292834028
172,3.391,0.0274153909075787
173,3.398,0.0408030379248612
174,3.406,0.0278337548768688
175,3.413,0.0358747103666241
176,3.421,0.0290344594687313
177,3.428,0.0220561484609728
178,3.436,0.02521061278942
179,3.443,0.0229556309949465
180,3.451,0.0346489039366041
181,3.459,0.045785752799106
182,3.466,0.0208554438691103
183,3.474,0.0322182092750288
184,3.481,0.0375105134865483
185,3.489,0.0804723094929462
186,3.496,0.0839489140777468
187,3.504,0.0417485404954567
188,3.511,0.0230476710681903
189,3.519,0.0222318613280747
190,3.526,0.0357533848155299
191,3.534,0.0223699214379404
192,3.541,0.0235622587504171
193,3.549,0.0229096109583246
194,3.556,0.0243445993729896
195,3.564,0.0327076951190982
196,3.572,0.0343811509962585
197,3.579,0.0289507866748733
198,3.587,0.0291348668213609
199,3.594,0.0268924359459661
200,3.602,0.0294319052395569
201,3.609,0.0262481554332594
202,3.617,0.0308878118526863
203,3.624,0.017663326783427
204,3.632,0.0231271602223554
205,3.639,0.0332139155219392
206,3.647,0.0329043261846645
207,3.654,0.0172073100569008
208,3.662,0.0199141249382076
209,3.670,0.0358663430872383
210,3.677,0.0365482763571811
211,3.685,0.0191024988377849
212,3.692,0.01863393119218
213,3.700,0.0363139925343786
214,3.707,0.0213198278750223
215,3.715,0.0237045024999757
216,3.722,0.0167512933303747
217,3.730,0.0292645596518409
218,3.737,0.0195501482849253
219,3.745,0.011889904007224
220,3.752,0.0181109762305674
221,3.760,0.0221565558136025
222,3.767,0.0233321585673076
223,3.775,0.0235497078313384
224,3.783,0.0212696241987075
225,3.790,0.0269677414604383
226,3.798,0.0197342284314129
227,3.805,0.023273587611607
228,3.813,0.0214704389039667
229,3.820,0.0267794776742578
230,3.828,0.0135382580462269
231,3.835,0.0172282282553653
232,3.843,0.0283441589194027
233,3.850,0.022595837981357
234,3.858,0.0234283822802443
235,3.865,0.0202655506724113
236,3.873,0.0187008694272664
237,3.881,0.0194581082116815
238,3.888,0.0256415276777888
239,3.896,0.016906087999012
240,3.903,0.0281433442141434
241,3.911,0.017621490386498
242,3.918,0.028540789984969
243,3.926,0.0213909497498016
244,3.933,0.0228552236423169
245,3.941,0.0235538914710313
246,3.948,0.0240601118738723
247,3.956,0.0166592532571308
248,3.963,0.0406900796531528
249,3.971,0.0966086077884645
250,3.978,0.0546090489114337
251,3.986,0.0346740057747615
252,3.994,0.0315571942035505
253,4.001,0.0211817677651566
254,4.009,0.0191987225507216
255,4.016,0.0133960142966683
256,4.024,0.0233321585673076
257,4.031,0.0128437738572053
258,4.039,0.0145841679694521
259,4.046,0.0242609265791315
260,4.054,0.0313480122189054
261,4.061,0.0192572935064222
262,4.069,0.0210311567362121
263,4.076,0.0270514142542963
264,4.084,0.0417443568557638
265,4.091,0.215139487567729
266,4.099,0.504643170676769
267,4.107,0.303861934535075
268,4.114,0.0623571496226859
269,4.122,0.0140319275299892
270,4.129,0.0175085321147897
271,4.137,0.0164124185152497
272,4.144,0.0211734004857708
273,4.152,0.0159187490314874
274,4.159,0.0251436745543336
275,4.167,0.0272564125992485
276,4.174,0.0149899810196634
277,4.182,0.0205584054509144
278,4.189,0.0209433003026612
279,4.197,0.0260682589264647
280,4.205,0.0207173837592446
281,4.212,0.0210269730965192
282,4.220,0.0106515466581253
283,4.227,0.0248257179376731
284,4.235,0.0208052401927955
285,4.242,0.0288838484397869
286,4.250,0.0175712867101832
287,4.257,0.0156802815689921
288,4.265,0.020319937988419
289,4.272,0.0134001979363612
290,4.280,0.011216338016667
291,4.287,0.0209976876186689
292,4.295,0.0244031703286902
293,4.302,0.00919564004499588
294,4.310,0.0168809861608546
295,4.318,0.0163747657580136
296,4.325,0.0201818778785533
297,4.333,0.0188347458974392
298,4.340,0.0170859845058067
299,4.348,0.0227297144515299
300,4.355,0.0233112403688431
301,4.363,0.0105929757024247
302,4.370,0.0187510731035812
303,4.378,0.0147096771602391
304,4.385,0.0181235271496461
305,4.393,0.0243948030493044
306,4.400,0
307,4.408,0.0178432232902218
308,4.416,0.105766595076224
309,4.423,0.143285475842158
310,4.431,0.0500781671240222
311,4.438,0.0206378946050795
312,4.446,0.0206378946050795
313,4.453,0.0276162056128379
314,4.461,0.024537046798863
315,4.468,0.0222151267693031
316,4.476,0.0173077174095305
317,4.483,0.0156551797308347
318,4.491,0.0127684683427331
319,4.498,0.010287570004843
320,4.506,0.0169981280722558
321,4.513,0.0157095670468424
322,4.521,0.0192782117048867
323,4.529,0.0160568091413531
324,4.536,0.0220435975418941
325,4.544,0.0142871295512561
326,4.551,0.00945502570595573
327,4.559,0.0167136405731386
328,4.566,0.0137599909499506
329,4.574,0.0166257841395876
330,4.581,0.0120321477567826
331,4.589,0.013743256391179
332,4.596,0.0109862378335574
333,4.604,0.0226460416576718
334,4.611,0.0167261914922173
335,4.619,0.0118271494118305
336,4.627,0.00993196063094642
337,4.634,0.0165002749488006
338,4.642,0.0132077505104877
339,4.649,0.0140486620887608
340,4.657,0.0188138276989747
341,4.664,0.0166341514189734
342,4.672,0.015809974399472
343,4.679,0.00195375973658466
344,4.687,0.0169981280722558
345,4.694,0.007082902000081
346,4.702,0.00484465476437909
347,4.709,0.0157137506865353
348,4.717,0.0109444014366284
349,4.724,0.00489067480100099
350,4.732,0.0125007154023875
351,4.740,0.0141114166841543
352,4.747,0.0111912361785095
353,4.755,0.0131240777166297
354,4.762,0.0239764390800143
355,4.770,0.0190230096836198
356,4.777,0.0118313330515234
357,4.785,0.0186464821112587
358,4.792,0.00543454796107809
359,4.800,0.00909523269236626
360,4.807,0.0127098973870325
361,4.815,0.0231229765826625
362,4.822,0.0165630295441941
363,4.830,0.0290804795053532
364,4.837,0.077573047185766
365,4.845,0.0859696120494178
366,4.853,0.0566171959640261
367,4.860,0.0255411203251592
368,4.868,0.0246667396293429
369,4.875,0.00923329280223199
370,4.883,0.0191610697934855
371,4.890,0.0239597045212427
372,4.898,0.0123333698146715
373,4.905,0.0155966087751341
374,4.913,0.0196254537993975
375,4.920,0.01479753359379
376,4.928,0.0170608826676493
377,4.935,0.0201902451579391
378,4.943,0.0197927993871135
379,4.951,0.0104800174307164
380,4.958,0.0138729492216589
381,4.966,0.0144126387420431
382,4.973,0.0171487391012002
383,4.981,0.0177846523345212
384,4.988,0.0200772868862308
385,4.996,0.0156593633705276
386,5.003,0.0137892764278009
387,5.011,0.020487283576135
388,5.018,0.0191234170362494
389,5.026,0.0306577116695768
390,5.033,0.0159312999505661
391,5.041,0.0157848725613146
392,5.048,0.0254616311709941
393,5.056,0.0237128697793615
394,5.064,0.028666299175756
395,5.071,0.0313898486158344
396,5.079,0.0110197069511006
397,5.086,0.0213532969925655
398,5.094,0.0181904653847325
399,5.101,0.0209140148248109
400,5.109,0.00861829776737557
401,5.116,0.0141490694413904
402,5.124,0.0114506218394694
403,5.131,0.0208721784278819
404,5.139,0.0153246721950955
405,5.146,0.0125132663214662
406,5.154,0.00823340291562871
407,5.162,0.0140026420521389
408,5.169,0.0176926122612773
409,5.177,0.0175880212689548
410,5.184,0.0121200041903335
411,5.192,0.0162032365306047
412,5.199,0.0101034898583553
413,5.207,0.0138562146628873
414,5.214,0.0194873936895318
415,5.222,0.0165839477426586
416,5.229,0.0160860946192034
417,5.237,0.0204579980982847
418,5.244,0.015512935981276
419,5.252,0.0154585486652683
420,5.259,0.0189769896469979
421,5.267,0.0239346026830853
422,5.275,0.0121032696315619
423,5.282,0.0116681711035002
424,5.290,0.0136010126416204
425,5.297,0.0102624681666856
426,5.305,0.0175838376292619
427,5.312,0.0232066493765205
428,5.320,0.0100783880201979
429,5.327,0.00651811064153939
430,5.335,0.0150987556516789
431,5.342,0.0168558843226972
432,5.350,0.0098315532783168
433,5.357,0.0173411865270737
434,5.365,0.0159940545459596
435,5.373,0.0217883955206272
436,5.380,0.00595331928299779
437,5.388,0.0240893973517226
438,5.395,0.0226502252973647
439,5.403,0.012266431579585
440,5.410,0.0164500712724858
441,5.418,0.0190062751248482
442,5.425,0.015600792414827
443,5.433,0.00649719244307489
444,5.440,0.0109653196350929
445,5.448,0.0206797310020085
446,5.455,0.0136805017957855
447,5.463,0.0153372231141742
448,5.470,0.0295825162685013
449,5.478,0.0272103925626266
450,5.486,0.0217340082046195
451,5.493,0.0205291199730641
452,5.501,0.0281056914569073
453,5.508,0.0350170642295794
454,5.516,0.0302602658987512
455,5.523,0.0253026528626638
456,5.531,0.0128270392984337
457,5.538,0.00833381026825832
458,5.546,0.0123375534543644
459,5.553,0.0244701085637766
460,5.561,0.0167261914922173
461,5.568,0.0170692499470351
462,5.576,0.0130571394815433
463,5.584,0.0154083449889535
464,5.591,0.0104800174307164
465,5.599,0.0168851698005475
466,5.606,0.012986017606764
467,5.614,0.0135717271637701
468,5.621,0.0207801383546381
469,5.629,0.0134964216492979
470,5.636,0.0207968729134097
471,5.644,0.021583397175675
472,5.651,0.0174290429606246
473,5.659,0.0231229765826625
474,5.666,0.010116040777434
475,5.674,0.00815391376146359
476,5.681,0.0124839808436159
477,5.689,0.0123584716528289
478,5.697,0.0170818008661138
479,5.704,0.0217381918443124
480,5.712,0.0149774301005847
481,5.719,0.0184749528838498
482,5.727,0.0265786629689986
483,5.734,0.0290177249099597
484,5.742,0.0137725418690293
485,5.749,0.0100198170644973
486,5.757,0.0215708462565963
487,5.764,0.0244240885271547
488,5.772,0.0137223381927145
489,5.779,0.0233865458833153
490,5.787,0.0205291199730641
491,5.794,0.0176758777025057
492,5.802,0.0150736538135215
493,5.810,0.0119442913232317
494,5.817,0.014040294809375
495,5.825,0.0103419573208507
496,5.832,0.015471099584347
497,5.840,0.00755983692507168
498,5.847,0.0174457775193962
499,5.855,0.00687790365512886
500,5.862,0.0178557742093005
501,5.870,0.0114924582363984
502,5.877,0.0140193766109105
503,5.885,0.0093002310373184
504,5.892,0.0121618405872625
505,5.900,0.0136553999576281
506,5.908,0.0172700646522944
507,5.915,0.0121743915063412
508,5.923,0.0263360118668103
509,5.930,0.0108732795618491
510,5.938,0.0160651764207389
511,5.945,0.00949686210288474
512,5.953,0.0120195968377039
513,5.960,0.0108858304809278
514,5.968,0.0092834964785468
515,5.975,0.011383683604383
516,5.983,0.0160860946192034
517,5.990,0.0169228225577836
518,5.998,0.0159103817521016
519,6.005,0.0154083449889535
520,6.013,0.0192949462636583
521,6.021,0.0146803916823888
522,6.028,0.0298209837309967
523,6.036,0.0278337548768688
524,6.043,0.02301838559034
525,6.051,0.0150903883722931
526,6.058,0.00391170311286222
527,6.066,0.0155213032606618
528,6.073,0.0175712867101832
529,6.081,0.02356644239011
530,6.088,0.0199266758572863
531,6.096,0.0205960582081505
532,6.103,0.0183494436930628
533,6.111,0.013826929185037
534,6.119,0.0185795438761723
535,6.126,0.0257084659128752
536,6.134,0.023315424008536
537,6.141,0.0259594842944492
538,6.149,0.0241186828295729
539,6.156,0.0128479574968982
540,6.164,0.0238885826464634
541,6.171,0.0162367056481479
542,6.179,0.0121660242269554
543,6.186,0.0158727289948655
544,6.194,0.0203701416647338
545,6.201,0.0156175269735986
546,6.209,0.024578883195792
547,6.216,0.0245077613210127
548,6.224,0.0203073870693403
549,6.232,0.0191066824774778
550,6.239,0.0100281843438831
551,6.247,0.0124421444466869
552,6.254,0.0098441041973955
553,6.262,0.018550258398322
554,6.269,0.0143164150291064
555,6.277,0.0100030825057257
556,6.284,0.0190230096836198
557,6.292,0.00591148288606878
558,6.299,0.014374985984807
559,6.307,0.00964747313182916
560,6.314,0.0098273696386239
561,6.322,0.0150778374532144
562,6.330,0.0153916104301819
563,6.337,0.0178934269665366
564,6.345,0.0155589560178979
565,6.352,0.0189351532500689
566,6.360,0.0146552898442314
567,6.367,0.0269133541444306
568,6.375,0.0193033135430441
569,6.382,0.00583617737159657
570,6.390,0.0163329293610846
571,6.397,0.0180775071130242
572,6.405,0.0146385552854598
573,6.412,0.00954288213950664
574,6.420,0.011634701985957
575,6.427,0.00309170973305367
576,6.435,0.00631729593628015
577,6.443,0.00845095217965955
578,6.450,0.0149314100639628
579,6.458,0.0148519209097977
580,6.465,0.0136721345163997
581,6.473,0.0136093799210062
582,6.480,0.0114924582363984
583,6.488,0.007630958799851
584,6.495,0.0128981611732131
585,6.503,0.0181151598702603
586,6.510,0.0115844983096422
587,6.518,0.0076393260792368
588,6.525,0.00394098859071252
589,6.533,0.0252859183038922
590,6.540,0.0199099412985147
591,6.548,0.0152995703569381
592,6.556,0.0160066054650383
593,6.563,0.0179896506794733
594,6.571,0.014207640397091
595,6.578,0.0156886488483779
596,6.586,0.015554772378205
597,6.593,0.0182490363404331
598,6.601,0.0189602550882263
599,6.608,0.0121283714697193
600,6.616,0.0225330833859635
601,6.623,0.00802840457067657
602,6.631,0.0168558843226972
603,6.638,0.0138813165010447
604,6.646,0.0205082017745996
605,6.654,0.0150443683356712
606,6.661,0.0209349330232754
607,6.669,0.0102541008872998
608,6.676,0.0215331934993602
609,6.684,0.0258214241845835
610,6.691,0.0208763620675748
611,6.699,0.0125509190787023
612,6.706,0.015851810796401
613,6.714,0.028373444397253
614,6.721,0.0171822082187434
615,6.729,0.0171487391012002
616,6.736,0.0193116808224299
617,6.744,0.015261917599702
618,6.751,0.0112079707372811
619,6.759,0.013575910803463
620,6.767,0.0210144221774405
621,6.774,0.0171027190645783
622,6.782,0.0257503023098042
623,6.789,0.0120405150361684
624,6.797,0.018466585604464
625,6.804,0.0204789162967492
626,6.812,0.0136093799210062
627,6.819,0.0164291530740213
628,6.827,0.0162074201702976
629,6.834,0.0203366725471906
630,6.842,0.017370472004924
631,6.849,0.0253528565389786
632,6.857,0.012182758785727
633,6.865,0.0180607725542526
634,6.872,0.00829615751102222
635,6.880,0.00891115254587863
636,6.887,0.0118229657721376
637,6.895,0.00840911578273054
638,6.902,0.0183368927739841
639,6.910,0.0203952435028912
640,6.917,0.0220979848579018
641,6.925,0.00989430787371031
642,6.932,0.0236835843015112
643,6.940,0.0129902012464569
644,6.947,0.0194497409322957
645,6.955,0.00170274135501061
646,6.962,0.0233112403688431
647,6.970,0.0152493666806233
648,6.978,0.0106473630184324
649,6.985,0.02137421519103
650,6.993,0.0150401846959783
651,7.000,0.0244993940416269
652,7.008,0.013195199591409
653,7.015,0.0183243418549053
654,7.023,0.0261686662790943
655,7.030,0.0416439495031342
656,7.038,0.0435056691664751
657,7.045,0.0276036546937592
658,7.053,0.0203073870693403
659,7.060,0.0127224483061112
660,7.068,0.0126178573137887
661,7.076,0.0171487391012002
662,7.083,0.0206546291638511
663,7.091,0.0264908065354476
664,7.098,0.0180524052748668
665,7.106,0.0164919076694148
666,7.113,0.0238467462495344
667,7.121,0.0214704389039667
668,7.128,0.025967851573835
669,7.136,0.00944247478687703
670,7.143,0.023185731178056
671,7.151,0.0149146755051912
672,7.158,0.0247671469819725
673,7.166,0.0310467901610166
674,7.173,0.0270765160924538
675,7.181,0.0183452600533699
676,7.189,0.0258046896258119
677,7.196,0.0186422984715658
678,7.204,0.0221983922105315
679,7.211,0.0283692607575601
680,7.219,0.031113728396103
681,7.226,0.0530862040632178
682,7.234,0.0677205757089847
683,7.241,0.041401298400946
684,7.249,0.0523164143597241
685,7.256,0.0376987772727288
686,7.264,0.0350003296708078
687,7.271,0.0310509738007095
688,7.279,0.0233321585673076
689,7.287,0.0182030163038112
690,7.294,0.0258381587433551
691,7.302,0.0266958048803998
692,7.309,0.0205625890906073
693,7.317,0.024369701211147
694,7.324,0.0266665194025495
695,7.332,0.0206964655607801
