#"+EI TIC Scan MEOH-ASA.d "
#Point,X(Minutes),Y(Counts)
0,2.095,0.207698631875926
1,2.102,0.174267101247103
2,2.110,0.16929545921704
3,2.117,0.153021617638635
4,2.125,0.193441067343046
5,2.132,0.207157275299319
6,2.140,0.219497995627275
7,2.148,0.188016453483577
8,2.155,0.128384369356323
9,2.163,0.111011242484604
10,2.170,0.136593102752627
11,2.178,0.179161406623365
12,2.185,0.334392642942028
13,2.193,0.281687713376661
14,2.200,0.166025223570599
15,2.208,0.129853765778542
16,2.215,0.126439904917899
17,2.223,0.122678029115151
18,2.230,0.104194568856717
19,2.238,0.127749103985815
20,2.246,0.111458690267309
21,2.253,0.0967260577182229
22,2.261,0.0744862457037417
23,2.268,0.0856116757576824
24,2.276,0.0794965560607051
25,2.283,0.0854956707769809
26,2.291,0.0847609725658716
27,2.298,0.0897049943624341
28,2.306,0.104901646834326
29,2.313,0.094361765730593
30,2.321,0.0876776692235085
31,2.328,0.0684042702869648
32,2.336,0.0821370503833385
33,2.343,0.0580908750979344
34,2.351,0.0661559832800364
35,2.359,0.0815017850128304
36,2.366,0.110812376803401
37,2.374,0.124296574798271
38,2.381,0.102504210566496
39,2.389,0.105768922166237
40,2.396,0.178829963821361
41,2.404,0.245251101343001
42,2.411,0.180139162889278
43,2.419,0.0904286444801433
44,2.426,0.0387788078344903
45,2.434,0.0686473283417679
46,2.441,0.0390218658892934
47,2.449,0.0917267954546597
48,2.456,0.0804632642332173
49,2.464,0.0896276577086332
50,2.472,0.104636492592723
51,2.479,0.105437479364233
52,2.487,0.0795352243876056
53,2.494,0.0427782176453409
54,2.502,0.0507880853604421
55,2.509,0.0653273762750259
56,2.517,0.0501362478498339
57,2.524,0.0433913868290486
58,2.532,0.0495562229463265
59,2.539,0.0548482596849934
60,2.547,0.0466505743820898
61,2.554,0.0531634254414722
62,2.562,0.0589691985232456
63,2.570,0.0964332832431192
64,2.577,0.562259569319909
65,2.585,0.603590486729831
66,2.592,0.150784378725106
67,2.600,0.0826673588665452
68,2.607,0.0934005816047809
69,2.615,0.0648357361187197
70,2.622,0.0667470562769439
71,2.630,0.0590575832704467
72,2.637,0.0498876657483307
73,2.645,0.0365526170143621
74,2.652,0.0518376542334554
75,2.660,0.0406846039460144
76,2.667,0.0418998942200297
77,2.675,0.0653494724618262
78,2.683,0.0414137781104236
79,2.690,0.0392207315704959
80,2.698,0.031796412805602
81,2.705,0.0564226129945134
82,2.713,0.0520033756344575
83,2.720,0.0580411586776338
84,2.728,0.0608308022611691
85,2.735,0.0642722833553126
86,2.743,0.0646479185309174
87,2.750,0.063509964910703
88,2.758,0.0535887770373775
89,2.765,0.0455347169486757
90,2.773,0.109878812911089
91,2.781,0.0826176424462445
92,2.788,0.161252447221739
93,2.796,0.596061211077636
94,2.803,0.529043476512389
95,2.811,0.240760051375844
96,2.818,0.147530715218765
97,2.826,0.109878812911089
98,2.833,0.0946987325792973
99,2.841,0.0859873109332871
100,2.848,0.0893404072802295
101,2.856,0.0791485411186007
102,2.863,0.0624493479442896
103,2.871,0.0944446264310941
104,2.878,0.0632834789960001
105,2.886,0.059875142182057
106,2.894,0.0832584318634526
107,2.901,0.114419579298547
108,2.909,0.117336275956183
109,2.916,0.076961018625373
110,2.924,0.0507162727533412
111,2.931,0.0588200492623437
112,2.939,0.0720888094359114
113,2.946,0.0436233967904515
114,2.954,0.259889825098186
115,2.961,6.65581891202685
116,2.969,41.126306720152
117,2.976,100
118,2.984,66.2578853695126
119,2.992,1.14306888745865
120,2.999,0.156871878188583
121,3.007,0.100537649941271
122,3.014,0.0888156228437229
123,3.022,0.0919532813693626
124,3.029,0.0905391254141447
125,3.037,0.0880477803524132
126,3.044,0.0740111776875357
127,3.052,0.0726025457790179
128,3.059,0.0585935633476408
129,3.067,0.0782591695998894
130,3.074,0.0851366077414764
131,3.082,0.0579859182106331
132,3.089,0.0495230786661261
133,3.097,0.0587150923750423
134,3.105,0.0369945407503677
135,3.112,0.0586653759547417
136,3.120,0.0638358836660071
137,3.127,0.0688793383031708
138,3.135,0.0734974413444292
139,3.142,0.047849292516005
140,3.150,0.0571683592990228
141,3.157,0.0414193021571237
142,3.165,0.0729118923942218
143,3.172,0.0342214693069327
144,3.180,0.035514096234749
145,3.187,0.0322604327284079
146,3.195,0.0502412047371352
147,3.203,0.0358179188032529
148,3.210,0.031879273506103
149,3.218,0.0542682347814861
150,3.225,0.0447779225507661
151,3.233,0.030216535449382
152,3.240,0.0169312031357141
153,3.248,0.0311887676685943
154,3.255,0.0404525939846114
155,3.263,0.070945331768997
156,3.270,0.0377347630081771
157,3.278,0.032823885491815
158,3.285,0.0228032647778883
159,3.293,0.035674293589051
160,3.300,0.0180802048493286
161,3.308,0.0253719464934208
162,3.316,0.0581516396116352
163,3.323,0.045164605819771
164,3.331,0.0259188271167277
165,3.338,0.0314207776299973
166,3.346,0.0173013142646187
167,3.353,0.016295937765206
168,3.361,0.0155999078809972
169,3.368,0
170,3.376,0.0128655047644627
171,3.383,0.0150916955845908
172,3.391,0.0256757690619246
173,3.398,0.0200799097547539
174,3.406,0.0195661734116474
175,3.413,0.0302993961498831
176,3.421,0.0293216398839707
177,3.429,0.0366686219950636
178,3.436,0.0210134736470657
179,3.444,0.0158042976088998
180,3.451,0.0378949603624791
181,3.459,0.0111143819605405
182,3.466,0.0281781622170563
183,3.474,0.0196877024390489
184,3.481,0.021516161896772
185,3.489,0.0810764334169251
186,3.496,0.0640347493472096
187,3.504,0.0351329370124442
188,3.511,0.00315423066573988
189,3.519,0.00748508327859463
190,3.527,0.0286808504667626
191,3.534,0.031879273506103
192,3.542,0.00537489743916796
193,3.549,0.0138653572171753
194,3.557,0.0208477522460636
195,3.564,0.0275981373135489
196,3.572,0.019930760493852
197,3.579,0.00929697059621754
198,3.587,0.0339231707851289
199,3.594,0.0121860470203541
200,3.602,0.0305258820645859
201,3.609,0.0155446674139965
202,3.617,0.0340281276724302
203,3.624,0.0181630655498296
204,3.632,0.0220740906134791
205,3.640,0.0235655832224979
206,3.647,0.0265651405806359
207,3.655,0.0248250658701139
208,3.662,0.0188480473406383
209,3.670,0.0293050677438705
210,3.677,0.019538553178147
211,3.685,0.0031873749459403
212,3.692,0.0165610920068094
213,3.700,0.0272998387917452
214,3.707,0.0235379629889976
215,3.715,0.0286145619063618
216,3.722,0.00775576156689806
217,3.730,0.00555719098027026
218,3.738,0.0291393463428684
219,3.745,0.0304319732706848
220,3.753,0.0272777426049449
221,3.760,0.0357074378692515
222,3.768,0.0121970951137542
223,3.775,0.014312804999881
224,3.783,0.0288465718677647
225,3.790,0.024598579955411
226,3.798,0.0406956520394145
227,3.805,0.0377402870548772
228,3.813,0.0439437914990556
229,3.820,0.0326968324177134
230,3.828,0.020168294501955
231,3.835,0.017003015742815
232,3.843,0.0173123623580189
233,3.851,0.0270291605034417
234,3.858,0.0206986029851617
235,3.866,0.0291724906230688
236,3.873,0.0279130079754529
237,3.881,0.0483740769525116
238,3.888,0.0565330939285148
239,3.896,0.0585107026471398
240,3.903,0.0345252918754365
241,3.911,0.0641618024213112
242,3.918,0.0414911147642246
243,3.926,0.0363371791930594
244,3.933,0.0346910132764386
245,3.941,0.0434631994361495
246,3.949,0.0369006319564665
247,3.956,0.0287250428403632
248,3.964,0.0500257669158325
249,3.971,0.0804743123266174
250,3.979,0.0622946746366876
251,3.986,0.0259298752101278
252,3.994,0.0267032417481376
253,4.001,0.013683063676073
254,4.009,0.0250902201117172
255,4.016,0.0278964358353527
256,4.024,0.0279848205825538
257,4.031,0.0179641998686271
258,4.039,0.00855674833840818
259,4.046,0.0186602297528359
260,4.054,0.0189585282746397
261,4.062,0.0370553052640685
262,4.069,0.0038834048301491
263,4.077,0.0280124408160542
264,4.084,0.0314152535832972
265,4.092,0.0255708121746233
266,4.099,0.0125230138690583
267,4.107,0.022543634582985
268,4.114,0.0277528106211509
269,4.122,0.0175664685062221
270,4.129,0.0210300457871659
271,4.137,0.0271064971572427
272,4.144,0.0439051231721551
273,4.152,0.0922073875175658
274,4.159,0.144282575759124
275,4.167,0.0993002634804555
276,4.175,0.0627034540924928
277,4.182,0.0458606357039798
278,4.190,0.0325034907832109
279,4.197,0.0183122148107315
280,4.205,0.0398891412212043
281,4.212,0.0287858073540639
282,4.220,0.0196490341121484
283,4.227,0.0265927608141362
284,4.235,0.0270346845501418
285,4.242,0.0160142113835025
286,4.250,0.0366907181818639
287,4.257,0.0109099922326379
288,4.265,0.0267695303085384
289,4.273,0.0308076084462895
290,4.280,0.0242450409666065
291,4.288,0.0329398904725165
292,4.295,0.0227204040773873
293,4.303,0.0385909902466879
294,4.310,0.0295315536585734
295,4.318,0.026421515366434
296,4.325,0.0200301933344532
297,4.333,0.0125285379157584
298,4.340,0.0381656386507825
299,4.348,0.0506610322863405
300,4.355,0.0237754969971006
301,4.363,0.020963757226765
302,4.370,0.0284433164586596
303,4.378,0.0171300688169166
304,4.386,0.0212565317018687
305,4.393,0.00771709323999757
306,4.401,0.0244052383209086
307,4.408,0.0164119427459075
308,4.416,0.0955936281447086
309,4.423,0.151695846430618
310,4.431,0.0567706279366178
311,4.438,0.0180636327092284
312,4.446,0.0304430213640849
313,4.453,0.0264104672730339
314,4.461,0.0261895054050311
315,4.468,0.0429936554666436
316,4.476,0.0519094668405563
317,4.484,0.0563066080138119
318,4.491,0.0589360542430451
319,4.499,0.0583781255263381
320,4.506,0.0708072306014952
321,4.514,0.0311059069680933
322,4.521,0.0530308483206705
323,4.529,0.151944428532121
324,4.536,0.114148901010243
325,4.544,0.0865176194164938
326,4.551,0.0541246095672843
327,4.559,0.0420656156210318
328,4.566,0.036304034912859
329,4.574,0.0247090608894124
330,4.581,0.0278909117886526
331,4.589,0.0401432473694075
332,4.597,0.049589367226527
333,4.604,0.0244660028346093
334,4.612,0.0148817818099882
335,4.619,0.0440266521995566
336,4.627,0.145304524398637
337,4.634,0.892343455835882
338,4.642,1.00066448757755
339,4.649,0.326968324177134
340,4.657,0.162810228391158
341,4.664,0.116579481558274
342,4.672,0.116098889495368
343,4.679,0.0869650671991995
344,4.687,0.0693930746462773
345,4.695,0.0721827182298126
346,4.702,0.0618472268539819
347,4.710,0.0405796470587131
348,4.717,0.0506499841929404
349,4.725,0.117441232843485
350,4.732,0.207118606972419
351,4.740,0.111072006998304
352,4.747,0.0764638544223667
353,4.755,0.0588255733090437
354,4.762,0.100046009784965
355,4.770,0.502168989316549
356,4.777,0.630288204431269
357,4.785,0.243847993481183
358,4.792,0.129665948190739
359,4.800,0.102542878893396
360,4.808,0.103553779439509
361,4.815,0.0625432567381907
362,4.823,0.0573506528401251
363,4.830,0.0595326512866527
364,4.838,0.137084742908933
365,4.845,0.148850962380082
366,4.853,0.0685202752676663
367,4.860,0.0781542127125881
368,4.868,0.0451756539131712
369,4.875,0.0467334350825909
370,4.883,0.0516885049725535
371,4.890,0.0469267767170933
372,4.898,0.237782590204506
373,4.906,0.472538002817374
374,4.913,0.213211630482596
375,4.921,0.0715308807192044
376,4.928,0.0479155810764058
377,4.936,0.0396184629329009
378,4.943,0.0481254948510085
379,4.951,0.0289183844748656
380,4.958,0.0294321208179721
381,4.966,0.0428168859722413
382,4.973,0.048799428548417
383,4.981,0.041209388382521
384,4.988,0.0500368150092326
385,4.996,0.0211460507678673
386,5.003,0.0388009040212906
387,5.011,0.0377071427746767
388,5.019,0.0393312125044973
389,5.026,0.0281339698434557
390,5.034,0.0125064417289581
391,5.041,0.0478603406094051
392,5.049,0.0333265737415213
393,5.056,0.0237699729504005
394,5.064,0.0275870892201488
395,5.071,0.0297027991062755
396,5.079,0.0252062250924187
397,5.086,0.0252559415127193
398,5.094,0.0356135290753503
399,5.101,0.023013178552491
400,5.109,0.0186823259396362
401,5.116,0.0351274129657441
402,5.124,0.0136720155826729
403,5.132,0.0323432934289089
404,5.139,0.0238804538844019
405,5.147,0.0356853416824512
406,5.154,0.0195882695984477
407,5.162,0.0238583576976016
408,5.169,0.0263110344324327
409,5.177,0.0258801587898272
410,5.184,0.021433301196271
411,5.192,0.00224276296022836
412,5.199,0.0342104212135325
413,5.207,0.0244991471148097
414,5.214,0.0467721034094913
415,5.222,0.0330669435466181
416,5.230,0.0413253933632225
417,5.237,0.0150861715378907
418,5.245,0.0427285012250402
419,5.252,0.00825292576990434
420,5.260,0.0128268364375622
421,5.267,0.0279848205825538
422,5.275,0.0231402316265926
423,5.282,0.032823885491815
424,5.290,0.0263276065725329
425,5.297,0.0324206300827099
426,5.305,0.0241124638458049
427,5.312,0.0230076545057909
428,5.320,0.0240406512387039
429,5.327,0.0128378845309623
430,5.335,0.0235876794092982
431,5.343,0.0125064417289581
432,5.350,0.0243997142742085
433,5.358,0.0256647209685245
434,5.365,0.0100316688073268
435,5.373,0.0237147324833998
436,5.380,0.0280455850962546
437,5.388,0.033298953508021
438,5.395,0.0123849127015566
439,5.403,0.0176659013468234
440,5.410,0.0128378845309623
441,5.418,0.00807063222880204
442,5.425,0.022620971236786
443,5.433,0.0311887676685943
444,5.441,0.0413530135967228
445,5.448,0.0278356713216519
446,5.456,0.0474349890134997
447,5.463,0.0302828240097829
448,5.471,0.0751601794011503
449,5.478,0.145602822920441
450,5.486,0.0810543372301248
451,5.493,0.0429052707194425
452,5.501,0.030454069457485
453,5.508,0.0198920921669515
454,5.516,0.0439437914990556
455,5.523,0.057814672762931
456,5.531,0.109541846062385
457,5.538,0.163246628080464
458,5.546,0.0779442989379854
459,5.554,0.0256315766883241
460,5.561,0.0380883019969816
461,5.569,0.0373701759259725
462,5.576,0.0343761426145346
463,5.584,0.0329730347527169
464,5.591,0.0279351041622532
465,5.599,0.0246206761422113
466,5.606,0.030211011402682
467,5.614,0.0138045927034745
468,5.621,0.0184392678848331
469,5.629,0.025703389295425
470,5.636,0.0385799421532878
471,5.644,0.0765743353563681
472,5.652,0.134289575278698
473,5.659,0.0691113482645738
474,5.667,0.0203837323232577
475,5.674,0.00582234522187361
476,5.682,0.0284046481317591
477,5.689,0.0323985338959096
478,5.697,0.0292166829966694
479,5.704,0.0625819250650912
480,5.712,0.217183420059946
481,5.719,0.233026385995746
482,5.727,0.166516863726905
483,5.734,0.144061613891121
484,5.742,0.0822475313173399
485,5.749,0.0383313600517846
486,5.757,0.0355196202814491
487,5.765,0.0486613273809152
488,5.772,0.0342380414470329
489,5.780,0.0343374742876341
490,5.787,0.0208643243861638
491,5.795,0.0266921936547375
492,5.802,0.0298409002737773
493,5.810,0.0147381565957863
494,5.817,0.0157711533286994
495,5.825,0.020168294501955
496,5.832,0.0273385071186456
497,5.840,0.205008421132992
498,5.847,0.887095611470816
499,5.855,0.812222682498069
500,5.862,0.201053203695742
501,5.870,0.0609081389149701
502,5.878,0.0344424311749355
503,5.885,0.0305755984848866
504,5.893,0.040888993673917
505,5.900,0.0320173746736048
506,5.908,0.0323653896157092
507,5.915,0.0342435654937329
508,5.923,0.0409331860475175
509,5.930,0.0401321992760074
510,5.938,0.015660672394698
511,5.945,0.0458219673770793
512,5.953,0.0352268458063454
513,5.960,0.0354975240946488
514,5.968,0.050777037267042
515,5.976,0.0175057039925213
516,5.983,0.0319013696929033
517,5.991,0.0346523449495381
518,5.998,0.0625984972051914
519,6.006,0.0380109653431806
520,6.013,0.0529756078536698
521,6.021,0.0526828333785661
522,6.028,0.0750938908407494
523,6.036,0.0927045517205721
524,6.043,0.0410547150749191
525,6.051,0.0368067231625653
526,6.058,0.0129262692781634
527,6.066,0.03638689561336
528,6.073,0.0365912853412626
529,6.081,0.021831032558676
530,6.089,0.0243499978539079
531,6.096,0.0274047956790465
532,6.104,0.0341772769333321
533,6.111,0.0417120766322274
534,6.119,0.0377016187279767
535,6.126,0.0598475219485567
536,6.134,0.156347093752077
537,6.141,0.159401891577215
538,6.149,0.0901137738182393
539,6.156,0.070315590445189
540,6.164,0.0738123120063332
541,6.171,0.0618085585270814
542,6.179,0.0638469317594072
543,6.187,0.0405520268252127
544,6.194,0.048639231194115
545,6.202,0.0574445616340263
546,6.209,0.047374224499799
547,6.217,0.0973447509486307
548,6.224,0.0827833638472466
549,6.232,0.0813471117052285
550,6.239,0.0581405915182351
551,6.247,0.056787200076718
552,6.254,0.0604109747119638
553,6.262,0.047534421854101
554,6.269,0.0875450921027068
555,6.277,0.0667857246038444
556,6.284,0.0396571312598014
557,6.292,0.0277417625277507
558,6.300,0.029901664787478
559,6.307,0.0477001432551031
560,6.315,0.0399222855014047
561,6.322,0.0310617145944927
562,6.330,0.051329441937049
563,6.337,0.0627145021858929
564,6.345,0.0593337856054502
565,6.352,0.0404360218445112
566,6.360,0.0432809058950472
567,6.367,0.126274183516896
568,6.375,0.32821123468465
569,6.382,0.20013621194353
570,6.390,0.094676636392497
571,6.398,0.0660952187663356
572,6.405,0.0740167017342358
573,6.413,0.0732820035231265
574,6.420,0.0729118923942218
575,6.428,0.058289740779137
576,6.435,0.0788778628302973
577,6.443,0.057345128793425
578,6.450,0.0606706049068671
579,6.458,0.0677358606362564
580,6.465,0.0785187997947927
581,6.473,0.0680065389245598
582,6.480,0.0755523867168552
583,6.488,0.0830816623690504
584,6.495,0.0790270120911991
585,6.503,0.0612451057636743
586,6.511,0.0834352013578549
587,6.518,0.0867717255646971
588,6.526,0.0796401812749069
589,6.533,0.0496280355534275
590,6.541,0.0832694799568528
591,6.548,0.530325055346805
592,6.556,3.54632197646414
593,6.563,5.40676566458066
594,6.571,1.80804258111966
595,6.578,1.91832464943985
596,6.586,5.51193246565659
597,6.593,2.97680933382704
598,6.601,1.23675119544514
599,6.609,4.66709581144131
600,6.616,11.3163908243154
601,6.624,6.77157531062681
602,6.631,1.54568350714654
603,6.639,0.9254269715226
604,6.646,0.714436007813433
605,6.654,0.600734554585895
606,6.661,0.498048050478297
607,6.669,0.478697314887952
608,6.676,0.46113084638173
609,6.684,0.422059264072136
610,6.691,0.483597144310914
611,6.699,0.332420558270103
612,6.706,0.273280114299155
613,6.714,0.274600361460472
614,6.722,0.214526353597212
615,6.729,0.205964081212104
616,6.737,0.192938379093339
617,6.744,0.1977608718625
618,6.752,0.176659013468234
619,6.759,0.188646194807385
620,6.767,0.225729120304954
621,6.774,0.176432527553531
622,6.782,0.141382451241587
623,6.789,0.120368977594522
624,6.797,0.117397040469884
625,6.804,0.108061401546766
626,6.812,0.109414792988283
627,6.819,0.0982175503272418
628,6.827,0.0925885467398706
629,6.835,0.102553926986797
630,6.842,0.112077383497717
631,6.850,0.112707124821525
632,6.857,0.119021110199705
633,6.865,0.368669352715961
634,6.872,2.10226435645878
635,6.880,2.47082875228744
636,6.887,0.85181352519747
637,6.895,0.916124476879683
638,6.902,6.0110577052414
639,6.910,13.5566790116221
640,6.917,4.30464101126292
641,6.925,1.33217357814214
642,6.933,0.99896308119393
643,6.940,1.67449875214547
644,6.948,3.52226475308533
645,6.955,2.08188614818222
646,6.963,0.977043663888053
647,6.970,0.658803333497029
648,6.978,0.533324612704943
649,6.985,0.450579917184597
650,6.993,0.391781964109053
651,7.000,0.358924934337038
652,7.008,0.341049119215612
653,7.015,0.343938195639748
654,7.023,0.390119226052332
655,7.030,0.510736785748357
656,7.038,0.495319171408462
657,7.046,0.342341746143428
658,7.053,0.249874728430959
659,7.061,0.23807536467961
660,7.068,0.202108296615455
661,7.076,0.203108149068168
662,7.083,0.191159636055917
663,7.091,0.203483784243773
664,7.098,0.187801015662274
665,7.106,0.199622475600424
666,7.113,0.164666308082382
667,7.121,0.15974990651932
668,7.128,0.143901416536819
669,7.136,0.142934708364307
670,7.144,0.160727662785232
671,7.151,0.159816195079721
672,7.159,0.261375793660505
673,7.166,0.4587168379738
674,7.174,0.353163353628865
675,7.181,0.21830480154006
676,7.189,0.174907890664311
677,7.196,0.144072661984522
678,7.204,0.175797262183023
679,7.211,0.189380893018494
680,7.219,0.229706433929004
681,7.226,0.472024266474268
682,7.234,0.655157462674983
683,7.241,0.4745653279563
684,7.249,0.286996322255428
685,7.257,0.223745987539629
686,7.264,0.195733546723575
687,7.272,0.191872238080226
688,7.279,0.172792180778185
689,7.287,0.166555532053806
690,7.294,0.147829013740569
691,7.302,0.140962623692382
692,7.309,0.116573957511574
693,7.317,0.129384221809036
694,7.324,0.123556352540462
695,7.332,0.128218647955321
696,7.339,0.115839259300465
697,7.347,0.108912104738577
698,7.355,0.105669489325636
699,7.362,0.113524683733135
700,7.370,0.128434085776624
701,7.377,0.130588463989651
