#"+EI TIC Scan MEOH-PA.d "
#Point,X(Minutes),Y(Counts)
0,2.095,0.156773091800132
1,2.102,0.149549249587488
2,2.110,0.134353710529533
3,2.117,0.131476095964706
4,2.125,0.121352962241362
5,2.132,0.118795082628182
6,2.140,0.13699829792621
7,2.147,0.106276646385716
8,2.155,0.102916719775184
9,2.163,0.119759706719593
10,2.170,0.101632360732126
11,2.178,0.0951455346792115
12,2.185,0.107951190454514
13,2.193,0.0896775250823941
14,2.200,0.0808821042938561
15,2.208,0.0801125727153149
16,2.215,0.0908968532878291
17,2.223,0.109555284449219
18,2.230,0.104374494385237
19,2.238,0.0957850045825064
20,2.245,0.0874393804208622
21,2.253,0.0726394456251154
22,2.260,0.0660388156063605
23,2.268,0.0679680637891822
24,2.276,0.0592593507841418
25,2.283,0.0713388288726514
26,2.291,0.0638006709448287
27,2.298,0.0648303258738627
28,2.306,0.0628089506710749
29,2.313,0.0702712392883372
30,2.321,0.0693770652710182
31,2.328,0.0647923912185825
32,2.336,0.0685695990371968
33,2.343,0.0681956717208634
34,2.351,0.0623916694629927
35,2.358,0.0526587207653869
36,2.366,0.0724172569299028
37,2.374,0.0731922077449126
38,2.381,0.0538834682072906
39,2.389,0.0795164567037689
40,2.396,0.186616827032712
41,2.404,0.242554185861602
42,2.411,0.209578131950171
43,2.419,0.0786981519970103
44,2.426,0.0394032683631912
45,2.434,0.0662610043015731
46,2.441,0.0631937164603455
47,2.449,0.0621694807677801
48,2.456,0.0395983608760608
49,2.464,0.0389643102092345
50,2.471,0.0583814344762286
51,2.479,0.0554984006749334
52,2.487,0.0488869321832413
53,2.494,0.0571133331425762
54,2.502,0.0633508743179349
55,2.509,0.0513581040129229
56,2.517,0.0581809227268904
57,2.524,0.0540026914095998
58,2.532,0.0544524880364936
59,2.539,0.0498786524569951
60,2.547,0.0571892024531366
61,2.554,0.0568206943732718
62,2.562,0.0629606892921957
63,2.569,0.056912821393238
64,2.577,0.0583380805844798
65,2.585,0.0812722893195953
66,2.592,0.0617359418502921
67,2.600,0.0395170723290318
68,2.607,0.0635351283578673
69,2.615,0.0519325430785945
70,2.622,0.0450609512364096
71,2.630,0.0471961304050381
72,2.637,0.0504043183944493
73,2.645,0.0487460320350577
74,2.652,0.0205714216348059
75,2.660,0.0514068771411403
76,2.667,0.0328243152903107
77,2.675,0.0393707529443796
78,2.682,0.0583814344762286
79,2.690,0.0514177156140775
80,2.698,0.0484479740292847
81,2.705,0.0416901861529404
82,2.713,0.0575848067153444
83,2.720,0.0692090689404916
84,2.728,0.0575848067153444
85,2.735,0.0809579736044165
86,2.743,0.0799879302765371
87,2.750,0.0600939132003062
88,2.758,0.0563492208005036
89,2.765,0.0590967736900838
90,2.773,0.108742398978929
91,2.780,0.0816733128182718
92,2.788,0.0518891891868457
93,2.796,0.0576606760259048
94,2.803,0.0580725379975184
95,2.811,0.100521417256063
96,2.818,0.054826415352827
97,2.826,0.0512497192835509
98,2.833,0.0348294327836927
99,2.841,0.0440854886720616
100,2.848,0.0533848984521794
101,2.856,0.04567874419383
102,2.863,0.055585108458431
103,2.871,0.0474020613908449
104,2.878,0.055720589370146
105,2.886,0.060245651821427
106,2.893,0.0652476070819449
107,2.901,0.0496943984170627
108,2.909,0.0768827077800293
109,2.916,0.0550865387033198
110,2.924,0.0480035966388595
111,2.931,0.0530109711358459
112,2.939,0.0430612529794962
113,2.946,0.0585277538608808
114,2.954,0.269612433549322
115,2.961,6.48265324083347
116,2.969,41.9337212206028
117,2.976,100
118,2.984,71.5270010205506
119,2.991,1.30525561888114
120,2.999,0.146351900071014
121,3.006,0.110276042899543
122,3.014,0.0890922475437853
123,3.022,0.0697509925873516
124,3.029,0.0717344331348592
125,3.037,0.0697347348779458
126,3.044,0.0920132160003607
127,3.052,0.0647056834350849
128,3.059,0.0789040829828171
129,3.067,0.0506644417449421
130,3.074,0.0721896489982216
131,3.082,0.0631503625685967
132,3.089,0.0534607677627398
133,3.097,0.0408447852638388
134,3.104,0.0471744534591637
135,3.112,0.0207285794923953
136,3.120,0.0580075071598952
137,3.127,0.0732301424001928
138,3.135,0.0724335146393086
139,3.142,0.0281962873461262
140,3.150,0.0398042918618676
141,3.157,0.0502200643545169
142,3.165,0.0554984006749334
143,3.172,0.0396417147678096
144,3.180,0.0315778909025326
145,3.187,0.0636489323237079
146,3.195,0.0419557287399018
147,3.202,0.0509950151695267
148,3.210,0.030651201466402
149,3.217,0.044107165617936
150,3.225,0.0539539182813824
151,3.233,0.0321523299682043
152,3.240,0.04134335501895
153,3.248,0.029892508360798
154,3.255,0.0352683909376493
155,3.263,0.0668950549683993
156,3.270,0.0571783639801994
157,3.278,0.0231509781938595
158,3.285,0.0446978623930134
159,3.293,0.0365256537983645
160,3.300,0.0376853704026449
161,3.308,0.0314044753355374
162,3.315,0.0465349835558689
163,3.323,0.058701169427876
164,3.331,0.0280716449073484
165,3.338,0.0390293410468577
166,3.346,0.0245112065474781
167,3.353,0.0338106163275959
168,3.361,0.0196393129622067
169,3.368,0.0292259422751602
170,3.376,0.0133638371315678
171,3.383,0.0302718549136
172,3.391,0.0172548489160226
173,3.398,0.0241047638123331
174,3.406,0.0127406249376788
175,3.413,0.0286894378647688
176,3.421,0.0367803579123887
177,3.428,0.0357236068010117
178,3.436,0.030217662548914
179,3.444,0.0340815781510259
180,3.451,0.0290958805999138
181,3.459,0.0313123483155712
182,3.466,0.014973350362742
183,3.474,0.011288269564094
184,3.481,0.0453590092421826
185,3.489,0.099258735158879
186,3.496,0.100310067033787
187,3.504,0.0359186993138813
188,3.511,0.0359891493879731
189,3.519,0.0300388277454502
190,3.526,0.0363305612854949
191,3.534,0.0326021265950981
192,3.542,0.0274484327134594
193,3.549,0.0320439452388322
194,3.557,0.0308571324522088
195,3.564,0.0206689678912407
196,3.572,0.0217799113673037
197,3.579,0
198,3.587,0.0272316632547154
199,3.594,0.0302230817853826
200,3.602,0.013455964151534
201,3.609,0.0155911433201624
202,3.617,0.0375011163627125
203,3.624,0.0258335002458166
204,3.632,0.0166749906138824
205,3.639,0.0360325032797219
206,3.647,0.016138486203491
207,3.655,0.0114562658946206
208,3.662,0.0327213497974073
209,3.670,0.0267601896819472
210,3.677,0.0145289729723168
211,3.685,0.0280391294885368
212,3.692,0.0222784811224149
213,3.700,0.0258118232999422
214,3.707,0.0233731668890721
215,3.715,0.0302935318594744
216,3.722,0.133654629025084
217,3.730,1.00441754479974
218,3.737,2.44788537057606
219,3.745,4.05892140719796
220,3.753,5.7685496128931
221,3.760,8.1799255873802
222,3.768,10.0838821936029
223,3.775,12.2348746942467
224,3.783,14.7861590966436
225,3.790,16.9393409688207
226,3.798,1.76566311078047
227,3.805,0.858369121970972
228,3.813,0.609989256905625
229,3.820,0.487731282174007
230,3.828,0.456922922850015
231,3.835,0.379270683491445
232,3.843,0.358195272865059
233,3.850,0.302826933865372
234,3.858,0.274999154599111
235,3.866,0.283128009302011
236,3.873,0.245653989121641
237,3.881,0.225738295099536
238,3.888,0.239291805507505
239,3.896,0.198826366796468
240,3.903,0.169443266663719
241,3.911,0.182200149310803
242,3.918,0.179593496569407
243,3.926,0.251875272587594
244,3.933,0.251398379778358
245,3.941,0.152237190875913
246,3.948,0.168646638902834
247,3.956,0.279372478429271
248,3.963,0.253495624291706
249,3.971,0.228025212889285
250,3.979,0.179647688934093
251,3.986,0.123347241261806
252,3.994,0.124111353603879
253,4.001,0.120149891745332
254,4.009,0.125493258903372
255,4.016,0.11396654293466
256,4.024,0.113679323401824
257,4.031,0.107214174294784
258,4.039,0.0952810155909265
259,4.046,0.108460598682562
260,4.054,0.0935847945762547
261,4.061,0.096440732195207
262,4.069,0.0889405089226645
263,4.077,0.0846267966936588
264,4.084,0.0891518591449399
265,4.092,0.0803943730116821
266,4.099,0.0966087285257336
267,4.107,0.105599241827141
268,4.114,0.105859365177634
269,4.122,0.0806490771257063
270,4.129,0.0838626843515862
271,4.137,0.0824211674509386
272,4.144,0.0877482768995724
273,4.152,0.0962022857905886
274,4.159,0.103057619923368
275,4.167,0.0812939662654698
276,4.174,0.0773270851704545
277,4.182,0.0893794670766211
278,4.190,0.0765412958825075
279,4.197,0.060110170909712
280,4.205,0.0612753067504611
281,4.212,0.0638060901812973
282,4.220,0.0786927327605417
283,4.227,0.0597470820663158
284,4.235,0.0699948582284386
285,4.242,0.0655023111959691
286,4.250,0.072346806855811
287,4.257,0.0675941364728488
288,4.265,0.0831581836106682
289,4.272,0.0766442613754109
290,4.280,0.0609230563800021
291,4.288,0.070124919903685
292,4.295,0.0596007626816636
293,4.303,0.0763570418425751
294,4.310,0.0444377390425206
295,4.318,0.0615625262832969
296,4.325,0.0746662400643718
297,4.333,0.0805081769775227
298,4.340,0.0558669087547982
299,4.348,0.0585819462255668
300,4.355,0.0714417943655548
301,4.363,0.0769206424353095
302,4.370,0.0629281738733841
303,4.378,0.0548047384069526
304,4.385,0.0578774454846488
305,4.393,0.0749642980701449
306,4.401,0.0764871035178215
307,4.408,0.0886478701533601
308,4.416,0.160393141761156
309,4.423,0.254481925328991
310,4.431,0.116155914467974
311,4.438,0.0770778002928989
312,4.446,0.0615191723915481
313,4.453,0.069772669533226
314,4.461,0.0707264551516996
315,4.468,0.0794893605214259
316,4.476,0.0659412693499257
317,4.483,0.0811747430631605
318,4.491,0.0959638393859702
319,4.499,0.0741730895457293
320,4.506,0.0907396954302397
321,4.514,0.0800041879859429
322,4.521,0.0869624876116254
323,4.529,0.0752244214206377
324,4.536,0.0877049230078236
325,4.544,0.0707318743881682
326,4.551,0.0899213907234811
327,4.559,0.105577564881267
328,4.566,0.0766984537400969
329,4.574,0.0776197239397589
330,4.581,0.0960180317506562
331,4.589,0.0938286602173417
332,4.596,0.0746499823549661
333,4.604,0.070395881727115
334,4.612,0.0816678935818032
335,4.619,0.0812560316101895
336,4.627,0.0889188319767901
337,4.634,0.0964082167763954
338,4.642,0.096034289460062
339,4.649,0.0839656498444896
340,4.657,0.0920728276015153
341,4.664,0.0727478303544874
342,4.672,0.0707318743881682
343,4.679,0.099692274076367
344,4.687,0.116226364542066
345,4.694,0.11895765972224
346,4.702,0.0963973783034582
347,4.709,0.085287943542828
348,4.717,0.0872442879079926
349,4.725,0.106520512026803
350,4.732,0.0812722893195953
351,4.740,0.101838291717933
352,4.747,0.0865181102212002
353,4.755,0.0822043979921946
354,4.762,0.101350560435759
355,4.770,0.0925768165930951
356,4.777,0.0898888753046695
357,4.785,0.0728941497391396
358,4.792,0.0826704523284942
359,4.800,0.100689413586589
360,4.807,0.0901977717833797
361,4.815,0.110070111913736
362,4.823,0.100613544276029
363,4.830,0.101204241051106
364,4.838,0.158220027937248
365,4.845,0.208006553374277
366,4.853,0.135724777356089
367,4.860,0.107165401166567
368,4.868,0.101117533267609
369,4.875,0.11590121035395
370,4.883,0.13808214521993
371,4.890,1.17802820430782
372,4.898,16.638822629691
373,4.905,57.0418100596636
374,4.913,26.9894396422784
375,4.920,2.21104847918883
376,4.928,0.901636305936275
377,4.936,0.630040431839445
378,4.943,0.488457459860799
379,4.951,0.383080406728871
380,4.958,0.308495455211528
381,4.966,0.282748662749209
382,4.973,0.248374445828879
383,4.981,0.251788564804097
384,4.988,0.289571481463177
385,4.996,0.263900558311418
386,5.003,0.19487032417439
387,5.011,0.192865206681008
388,5.018,0.162132716667577
389,5.026,0.170039382675265
390,5.034,0.18186415664975
391,5.041,0.170966072111395
392,5.049,0.169546232156622
393,5.056,0.201980362421193
394,5.064,0.209821997591258
395,5.071,0.17001770572939
396,5.079,0.162024331938205
397,5.086,0.141891868457356
398,5.094,0.168993470036825
399,5.101,0.162544578639191
400,5.109,0.164300411255017
401,5.116,0.144449748070535
402,5.124,0.170722206470308
403,5.131,0.152540668118155
404,5.139,0.132955547520634
405,5.147,0.12944930152545
406,5.154,0.138109241402273
407,5.162,0.115982498900979
408,5.169,0.138320591624548
409,5.177,0.122160428475183
410,5.184,0.120794780885096
411,5.192,0.122138751529309
412,5.199,0.129498074653667
413,5.207,0.171903600020463
414,5.214,0.142553015306525
415,5.222,0.141555875796303
416,5.229,0.140233582097964
417,5.237,0.249653385635468
418,5.245,0.340517723504486
419,5.252,0.183175611875151
420,5.260,0.126338659792474
421,5.267,0.132771293480702
422,5.275,0.144579809745781
423,5.282,0.132836324318325
424,5.290,0.146942596846091
425,5.297,0.136608112900471
426,5.305,0.134575899224746
427,5.312,0.129834067314721
428,5.320,0.124322703826154
429,5.327,0.142932361859327
430,5.335,0.12244222877155
431,5.342,0.0924196587355057
432,5.350,0.114177893156935
433,5.358,0.119873510685434
434,5.365,0.111338213247389
435,5.373,0.103030523741025
436,5.380,0.145701591694782
437,5.388,0.125585385923338
438,5.395,0.121613085591854
439,5.403,0.126636717798247
440,5.410,0.105490857097769
441,5.418,0.15534783260889
442,5.425,0.190654158201819
443,5.433,0.180092066324518
444,5.440,0.157856939093852
445,5.448,0.155635052141726
446,5.456,0.125818413091488
447,5.463,0.166126693944935
448,5.471,0.186725211762084
449,5.478,0.189115095044737
450,5.486,0.184297393824151
451,5.493,0.142151991807849
452,5.501,0.133378247965185
453,5.508,0.127937334550711
454,5.516,0.118540378514158
455,5.523,0.130018321354653
456,5.531,0.125932217057329
457,5.538,0.127926496077773
458,5.546,0.121791920395318
459,5.553,0.119022690559863
460,5.561,0.113608873327732
461,5.569,0.121558893227168
462,5.576,0.128966989479745
463,5.584,0.111831363766031
464,5.591,0.121239158275521
465,5.599,0.125878024692643
466,5.606,0.13030012165102
467,5.614,0.256790520064615
468,5.621,0.513906194317345
469,5.629,0.386662522034615
470,5.636,0.266577661126906
471,5.644,0.301976113739802
472,5.651,0.21449879866366
473,5.659,0.136548501299316
474,5.666,0.142981134987544
475,5.674,0.147777159262255
476,5.682,0.134321195110721
477,5.689,0.120512980588729
478,5.697,0.130110448374619
479,5.704,0.122664417466763
480,5.712,0.145463145290163
481,5.719,0.141425814121056
482,5.727,0.158653566854736
483,5.734,0.13181208862576
484,5.742,0.136559339772253
485,5.749,0.118670440189404
486,5.757,0.131091330175436
487,5.764,0.112698441601007
488,5.772,0.142103218679631
489,5.780,0.143046165825168
490,5.787,0.124729146561299
491,5.795,0.137420998370761
492,5.802,0.0959638393859702
493,5.810,0.142623465380617
494,5.817,0.121585989409511
495,5.825,0.135188272945698
496,5.832,0.117445692747501
497,5.840,0.144688194475153
498,5.847,0.148963972048879
499,5.855,0.145734107113593
500,5.862,0.115527283037616
501,5.870,0.129481816944262
502,5.877,0.137827441105906
503,5.885,0.125639578288024
504,5.893,0.118058066468453
505,5.900,0.128045719280083
506,5.908,0.121439670024859
507,5.915,0.103778378373691
508,5.923,0.114866136188447
509,5.930,0.11187471765778
510,5.938,0.120133634035927
511,5.945,0.121445089261328
512,5.953,0.112806826330379
513,5.960,0.0881438811617802
514,5.968,0.139355665790051
515,5.975,0.249013915732174
516,5.983,0.28402218331933
517,5.991,0.170651756396216
518,5.998,0.142655980799428
519,6.006,0.201351730990836
520,6.013,0.32447678355743
521,6.021,0.280093236879595
522,6.028,0.17760463678543
523,6.036,0.177263224887908
524,6.043,0.151408047696218
525,6.051,0.144059563044796
526,6.058,0.146183903740487
527,6.066,0.128267907975295
528,6.073,0.137648606302442
529,6.081,0.126181501934884
530,6.088,0.134180294962538
531,6.096,0.114627689783829
532,6.104,0.126848068020522
533,6.111,0.121260835221395
534,6.119,0.126913098858145
535,6.126,0.179913231521054
536,6.134,0.209979155448847
537,6.141,0.185532979738992
538,6.149,0.157927389167943
539,6.156,0.139680819978167
540,6.164,0.118177289670762
541,6.171,0.130202575394585
542,6.179,0.131600738403484
543,6.186,0.11965674122669
544,6.194,0.14191354540323
545,6.202,0.136461793515819
546,6.209,0.146720408150878
547,6.217,0.162647544132094
548,6.224,0.152361833314691
549,6.232,0.170407890755129
550,6.239,0.147408651182391
551,6.247,0.136808624649809
552,6.254,0.112281160392925
553,6.262,0.128918216351527
554,6.269,0.130722822095571
555,6.277,0.13866200352207
556,6.284,0.129606459383039
557,6.292,0.134147779543726
558,6.299,0.142303730428969
559,6.307,0.13626128176648
560,6.315,0.177767213879488
561,6.322,0.260573147119697
562,6.330,0.203942126022827
563,6.337,0.197471557679318
564,6.345,0.130565664237982
565,6.352,0.149646795843923
566,6.360,0.144308847922351
567,6.367,0.158024935424378
568,6.375,0.163081083049582
569,6.382,0.133427021093402
570,6.390,0.131091330175436
571,6.397,0.13111300712131
572,6.405,0.135459234769128
573,6.412,0.163861453101061
574,6.420,0.181777448866252
575,6.428,0.159834960404891
576,6.435,0.147235235615395
577,6.443,0.134494610677717
578,6.450,0.133069351486475
579,6.458,0.12317924493128
580,6.465,0.141648002816269
581,6.473,0.141994833950259
582,6.480,0.136310054894698
583,6.488,0.138878772980814
584,6.495,0.11640519934553
585,6.503,0.132283562198528
586,6.510,0.140959759784757
587,6.518,0.182606592045948
588,6.526,0.189738307238626
589,6.533,0.176645431930488
590,6.541,0.160886292279799
591,6.548,0.148470821530236
592,6.556,0.145641980093627
593,6.563,0.157417980939895
594,6.571,0.147013046920183
595,6.578,0.141463748776336
596,6.586,0.153467357554286
597,6.593,0.141691356708018
598,6.601,0.139458631282954
599,6.608,0.123862068726323
600,6.616,0.14299739269695
601,6.623,0.132494912420803
602,6.631,0.124907981364763
603,6.639,0.155011839947837
604,6.646,0.209881609192412
605,6.654,0.202874536438512
606,6.661,0.158767370820576
607,6.669,0.144671936765748
608,6.676,0.119840995266622
609,6.684,0.122881186925507
610,6.691,0.113354169213708
611,6.699,0.13889503069022
612,6.706,0.112329933521142
613,6.714,0.10943606124691
614,6.721,0.0880029810135966
615,6.729,0.121434250788391
616,6.737,0.127585084180252
617,6.744,0.104580425371044
618,6.752,0.113825642786476
619,6.759,0.110086369623142
620,6.767,0.113408361578394
621,6.774,0.10970702307034
622,6.782,0.0987222307484876
623,6.789,0.0967225324915742
624,6.797,0.107663970921678
625,6.804,0.115613990821114
626,6.812,0.102634919478817
627,6.819,0.10060812503956
628,6.827,0.118941402012834
629,6.834,0.101177144868763
630,6.842,0.119320748565636
631,6.850,0.107214174294784
632,6.857,0.0836730110751852
633,6.865,0.0948149612546269
634,6.872,0.105469180151895
635,6.880,0.131893377172789
636,6.887,0.139875912491037
637,6.895,0.122940798526661
638,6.902,0.113419200051331
639,6.910,0.153673288540092
640,6.917,0.262095952567374
641,6.925,0.273319191293845
642,6.932,0.167801238013733
643,6.940,0.134657187771775
644,6.948,0.121976174435251
645,6.955,0.135079888216325
646,6.963,0.162040589647611
647,6.970,0.144173367010636
648,6.978,0.11021101206192
649,6.985,0.11628597614322
650,6.993,0.117071765431167
651,7.000,0.128679769946909
652,7.008,0.113256622957273
653,7.015,0.150692708482362
654,7.023,0.188887487113056
655,7.030,0.297857494023666
656,7.038,0.242657151354506
657,7.045,0.160734553658678
658,7.053,0.137361386769606
659,7.061,0.142807719420549
660,7.068,0.108086671366229
661,7.076,0.119017271323395
662,7.083,0.107669390158146
663,7.091,0.0982941110674682
664,7.098,0.127725984328435
665,7.106,0.0878566616289444
666,7.113,0.101025406247643
667,7.121,0.120285372657047
668,7.128,0.0993075082870964
669,7.136,0.166516878970675
670,7.143,0.187700674326432
671,7.151,0.203974641441638
672,7.158,0.244174537565714
673,7.166,0.24790297225611
674,7.174,0.211355641511872
675,7.181,0.173567305616323
676,7.189,0.125493258903372
677,7.196,0.123986711165101
678,7.204,0.134321195110721
679,7.211,0.180184193344484
680,7.219,0.220199835428627
681,7.226,0.301152389796575
682,7.234,0.462640217324389
683,7.241,0.401977284294879
684,7.249,0.264908536294578
685,7.256,0.217132547587399
686,7.264,0.18376088941376
687,7.272,0.185305371807311
688,7.279,0.152903756961551
689,7.287,0.126251952008976
690,7.294,0.118735471027028
691,7.302,0.100505159546657
692,7.309,0.11651900331137
693,7.317,0.0977305104747338
694,7.324,0.100060782156232
695,7.332,0.0924630126272545
696,7.339,0.0986734576202702
697,7.347,0.0941429759325205
698,7.354,0.0774354698998265
699,7.362,0.0906367299373363
700,7.369,0.0836513341293108
701,7.377,0.100077039865638
702,7.385,0.0858623826084996
703,7.392,0.0971831675914052
704,7.400,0.0830606373542334
705,7.407,0.08702209921278
706,7.415,0.0784488671194547
707,7.422,0.0783567400994885
708,7.430,0.0911732343477277
