#"+EI TIC Scan MEOH-Blank2.d "
#Point,X(Minutes),Y(Counts)
0,2.095,0.186324679707569
1,2.102,0.174688285644835
2,2.110,0.149712477023598
3,2.117,0.143688931861712
4,2.125,0.142440415228157
5,2.132,0.120629705791984
6,2.140,0.132895834121642
7,2.147,0.123898848029843
8,2.155,0.116643214084845
9,2.163,0.106282716406401
10,2.170,0.0907693496394717
11,2.178,0.107941929300993
12,2.185,0.0967381352998857
13,2.193,0.103873298341647
14,2.200,0.113291932594777
15,2.208,0.0822761509612127
16,2.215,0.0867390503311553
17,2.223,0.102712396910447
18,2.230,0.0809728748261865
19,2.238,0.0948598843994068
20,2.245,0.0786017884124624
21,2.253,0.0739088991363386
22,2.260,0.0751902714707761
23,2.268,0.0767125856116891
24,2.276,0.0856274324512801
25,2.283,0.0700702580831732
26,2.291,0.0798722088466055
27,2.298,0.0846362854746425
28,2.306,0.0700593061828789
29,2.313,0.093277334806875
30,2.321,0.0703111998896487
31,2.328,0.0574043853927716
32,2.336,0.0644190775312949
33,2.343,0.0626120139827292
34,2.351,0.0665218423878078
35,2.358,0.0709135544058372
36,2.366,0.0694021921652186
37,2.373,0.0508168173657274
38,2.381,0.0636360166602498
39,2.389,0.106660556966556
40,2.396,0.20342059606703
41,2.404,0.23336309147175
42,2.411,0.13905080208706
43,2.419,0.0830811156328465
44,2.426,0.0652952295548419
45,2.434,0.0682522426343131
46,2.441,0.0596933325542882
47,2.449,0.0700866859336147
48,2.456,0.0554494711902323
49,2.464,0.0626503456337594
50,2.471,0.0641726597746723
51,2.479,0.0643040825782044
52,2.487,0.0691283946578602
53,2.494,0.0765537830574212
54,2.502,0.0583736285688205
55,2.509,0.0654157004580797
56,2.517,0.0534069417853383
57,2.524,0.0591676413401599
58,2.532,0.0777201604387682
59,2.539,0.0686848426959395
60,2.547,0.0608432820851936
61,2.554,0.06578258911794
62,2.562,0.0587240893782393
63,2.569,0.0668503993966379
64,2.577,0.0684219970888754
65,2.584,0.0520105744978102
66,2.592,0.0634060267540687
67,2.600,0.0536862152428439
68,2.607,0.0481938372452335
69,2.615,0.0578041297535149
70,2.622,0.0457734672801848
71,2.630,0.0667354044435474
72,2.637,0.0414255628633327
73,2.645,0.0611992188447596
74,2.652,0.0592607324926618
75,2.660,0.058844560281477
76,2.667,0.0650214320474835
77,2.675,0.0350406049917338
78,2.682,0.0549675875772814
79,2.690,0.0748124309106215
80,2.698,0.0524924581107611
81,2.705,0.0607775706834276
82,2.713,0.0660454347250041
83,2.720,0.0596769047038467
84,2.728,0.0686574629452036
85,2.735,0.0796750746413075
86,2.743,0.0727644255555803
87,2.750,0.0666532651913398
88,2.758,0.0722770659924823
89,2.765,0.0636798242614271
90,2.773,0.0912895649034527
91,2.780,0.0514355997323575
92,2.788,0.0486483411074485
93,2.795,0.0527717315682667
94,2.803,0.0891210886451738
95,2.811,0.090292941976668
96,2.818,0.0474600599255128
97,2.826,0.0419512540774609
98,2.833,0.0547814052722777
99,2.841,0.0538614456475533
100,2.848,0.0653718928569023
101,2.856,0.0548471166740437
102,2.863,0.0506196831604293
103,2.871,0.0588062286304468
104,2.878,0.0607556668828389
105,2.886,0.0661111461267701
106,2.893,0.0704864302943581
107,2.901,0.0582038741142582
108,2.909,0.0534507493865156
109,2.916,0.0606570997801899
110,2.924,0.0537847823454929
111,2.931,0.0641179002732006
112,2.939,0.0562982434630434
113,2.946,0.0693474326637469
114,2.954,0.977610427873769
115,2.961,14.5544512328582
116,2.969,58.5162606423038
117,2.976,100
118,2.984,17.3327073957252
119,2.991,0.290438919855691
120,2.999,0.162750714324007
121,3.006,0.117481034457362
122,3.014,0.110285635963982
123,3.022,0.100686295355995
124,3.029,0.082122824357092
125,3.037,0.118269571278554
126,3.044,0.0996787205289155
127,3.052,0.0811042976297185
128,3.059,0.0875987745042609
129,3.067,0.0872483136948421
130,3.074,0.0710723569601051
131,3.082,0.0592114489413373
132,3.089,0.0876754378063212
133,3.097,0.0674582298629736
134,3.104,0.0742210282947272
135,3.112,0.061664674607269
136,3.120,0.0760554715940288
137,3.127,0.0998156192825947
138,3.135,0.0767344894122778
139,3.142,0.0651583308011627
140,3.150,0.0623929759768424
141,3.157,0.0702454884878826
142,3.165,0.0763128412509458
143,3.172,0.0517422529405989
144,3.180,0.0607720947332804
145,3.187,0.0618453809621255
146,3.195,0.0461075002391621
147,3.202,0.0403029930831631
148,3.210,0.0463101103946074
149,3.217,0.036699817886326
150,3.225,0.0409710590011177
151,3.233,0.0440649708342681
152,3.240,0.0362672178246996
153,3.248,0.0881518454691249
154,3.255,0.377172494236699
155,3.263,0.871021058259126
156,3.270,0.527071153565301
157,3.278,0.0908186331907962
158,3.285,0.0459541736350414
159,3.293,0.0548087850230135
160,3.300,0.0448480317053133
161,3.308,0.0593428717448693
162,3.315,0.0654430802088155
163,3.323,0.0481500296440561
164,3.330,0.059819279407673
165,3.338,0.047788616934343
166,3.346,0.0329871236865454
167,3.353,0.0471315029166827
168,3.361,0.0332225895428737
169,3.368,0.0476079105794864
170,3.376,0.0199598382864306
171,3.383,0.0376252534611975
172,3.391,0.031902885557406
173,3.398,0.0266404974659767
174,3.406,0.026098378401407
175,3.413,0.0509263363686707
176,3.421,0.0407082133940536
177,3.428,0.0377347724641409
178,3.436,0.0281518597065953
179,3.444,0.0396787347663858
180,3.451,0.0331240224402247
181,3.459,0.0365300634317637
182,3.466,0.0292799054369121
183,3.474,0.0303531916657572
184,3.481,0.0572948663898282
185,3.489,0.104240187001507
186,3.496,0.072364681194837
187,3.504,0.049442353878788
188,3.511,0.0203486307468796
189,3.519,0.0354732050533601
190,3.526,0.0319412172084362
191,3.534,0.0244117857560789
192,3.541,0.0321766830647644
193,3.549,0.0191055900634723
194,3.557,0.0236506286856225
195,3.564,0.0246527275625544
196,3.572,0.0174244733682914
197,3.579,0.011543302910232
198,3.587,0.0372693167016315
199,3.594,0.0210440764155701
200,3.602,0.0349694176398206
201,3.609,0.0198831749843703
202,3.617,0.0230592260697282
203,3.624,0.0315579006981344
204,3.632,0.0293018092375008
205,3.639,0.0351555999448243
206,3.647,0.0277575912959991
207,3.655,0.0164004706907709
208,3.662,0.0406972614937592
209,3.670,0.0139965285761637
210,3.677,0.0280806723546821
211,3.685,0.0241270363484262
212,3.692,0.0181199190369819
213,3.700,0.0261367100524371
214,3.707,0.0364807798804392
215,3.715,0.0373295521532504
216,3.722,0.0342192124696584
217,3.730,0.0321164476131456
218,3.737,0.0366176786341184
219,3.745,0.035533440504979
220,3.752,0.0299479713548667
221,3.760,0.0324833362730059
222,3.768,0.0276206925423199
223,3.775,0.0304955663695836
224,3.783,0.0307803157772364
225,3.790,0.0220242714919133
226,3.798,0.0305831815719383
227,3.805,0.0166085567963633
228,3.813,0.00905174559327019
229,3.820,0.0386875877897483
230,3.828,0.0300739182082516
231,3.835,0.0258793403955202
232,3.843,0.030216292912078
233,3.850,0.0148398248988277
234,3.858,0.0245213047590223
235,3.866,0.0214273929258719
236,3.873,0.0230811298703169
237,3.881,0.0348270429359942
238,3.888,0.0170575847084311
239,3.896,0.0239682337941583
240,3.903,0.0226540057588377
241,3.911,0.0369243318423599
242,3.918,0.028108052105418
243,3.926,0.0159021592273785
244,3.933,0.0255945909878674
245,3.941,0.0275714089909954
246,3.948,0.0174135214679971
247,3.956,0.0259943353486108
248,3.963,0.0523555593570818
249,3.971,0.0930363930003996
250,3.979,0.0501432754976256
251,3.986,0.0269581025745125
252,3.994,0.0372583648013372
253,4.001,0.0270292899264257
254,4.009,0.0114337839072887
255,4.016,0.0039262562555201
256,4.024,0.0269581025745125
257,4.031,0.0159897744297332
258,4.039,0.00689422123528564
259,4.046,0.0262517050055277
260,4.054,0.028661123070282
261,4.061,0.0253919808324222
262,4.069,0.028562555967633
263,4.076,0.015661217420903
264,4.084,0.0737665244325122
265,4.092,0.357168848349091
266,4.099,0.644574091823251
267,4.107,0.313815751033955
268,4.114,0.0664725588364832
269,4.122,0.0403577525846348
270,4.129,0.0312348196394514
271,4.137,0.0186729900018459
272,4.144,0.0363000735255826
273,4.152,0.0238751426416564
274,4.159,0.0140567640277826
275,4.167,0.0147631615967673
276,4.174,0.0114283079571415
277,4.182,0.0167728353007783
278,4.190,0.0131806120042355
279,4.197,0.0131368044030582
280,4.205,0.0234315906797357
281,4.212,0.0164935618432727
282,4.220,0.0141662830307259
283,4.227,0.0224787753541283
284,4.235,0.0117842447167075
285,4.242,0.0280259128532104
286,4.250,0.0173478100662311
287,4.257,0.0258191049439014
288,4.265,0.0184977595971365
289,4.272,0.00559094510025944
290,4.280,0.0301451055601648
291,4.287,0.0242803629525469
292,4.295,0.0136241639661562
293,4.303,0.0201569724917287
294,4.310,0.0252605580288901
295,4.318,0.0107711939394812
296,4.325,0.0357086709096884
297,4.333,0.0292853813870593
298,4.340,0.0330418831880171
299,4.348,0.0192205850165628
300,4.355,0.0243789300551959
301,4.363,0.00721182634382144
302,4.370,0.00420005376287854
303,4.378,0.0294222801407385
304,4.385,0.0282613787095387
305,4.393,0.0096650520097531
306,4.401,0.0250962795244751
307,4.408,0.0334416275487605
308,4.416,0.110203496711774
309,4.423,0.138503207072343
310,4.431,0.0544254685127117
311,4.438,0.0216683347323473
312,4.446,0.0283763736626292
313,4.453,0.0268321557211276
314,4.461,0.0306927005748817
315,4.468,0.014396272936907
316,4.476,0.011899239669798
317,4.483,0.0253810289321278
318,4.491,0.0159623946789973
319,4.498,0.020003645887608
320,4.506,0.0360317519683713
321,4.514,0.0166030808462161
322,4.521,0.0132244196054129
323,4.529,0.0256548264394863
324,4.536,0.0180487316850687
325,4.544,0.0170411568579896
326,4.551,0.0245048769085808
327,4.559,0.011477591508466
328,4.566,0.026487170861856
329,4.574,0.0140950956788127
330,4.581,0.0320671640618211
331,4.589,0.0400565753265405
332,4.596,0.00846034297737595
333,4.604,0.0211207397176304
334,4.612,0.00787441631162888
335,4.619,0.022210453796917
336,4.627,0.0145769792917636
337,4.634,0.0267171607680371
338,4.642,0.0119813789220055
339,4.649,0.0152888528108956
340,4.657,0.0127534878927564
341,4.664,0.025873864445373
342,4.672,0.0116802016639113
343,4.679,0.0294277560908857
344,4.687,0.01442912863779
345,4.694,0.00177968379782989
346,4.702,0.0233987349788527
347,4.709,0.0212576384713097
348,4.717,0.0153764680132503
349,4.725,0.0118171004175905
350,4.732,0.000837820372516841
351,4.740,0.0174409012187329
352,4.747,0.0124358827842206
353,4.755,0.0140129564266052
354,4.762,0.0210331245152757
355,4.770,0.0124961182358394
356,4.777,0.0157214528725219
357,4.785,0.0116035383618509
358,4.792,0.0295317991436819
359,4.800,0.0240175173454828
360,4.807,0.0280806723546821
361,4.815,0.0100155128191719
362,4.823,0.0106945306374209
363,4.830,0.0275002216390822
364,4.838,0.0879492353136797
365,4.845,0.102465979153824
366,4.853,0.0550825825303719
367,4.860,0.0226211500579547
368,4.868,0.0260326669996409
369,4.875,0.028918492727199
370,4.883,0.0205183852014419
371,4.890,0.0334471034989076
372,4.898,0.0272045203311351
373,4.905,0.024220127500928
374,4.913,0.023343975477381
375,4.920,0.0261750417034673
376,4.928,0.0149986274530956
377,4.936,0.0357853342117487
378,4.943,0.0319795488594664
379,4.951,0.0134982171127713
380,4.958,0.018804412805378
381,4.966,0.0182787215912498
382,4.973,0.00669708702998756
383,4.981,0.01802682788448
384,4.988,0.0186127545502271
385,4.996,0.0193301040195062
386,5.003,0.0242475072516639
387,5.011,0.00860819363134951
388,5.018,0.00726658584529313
389,5.026,0.0199269825855476
390,5.033,0.0213890612748417
391,5.041,0.0207867067586531
392,5.049,0.0229278032661962
393,5.056,0.0421921958839364
394,5.064,0.0513479845300028
395,5.071,0.0356593873583639
396,5.079,0.0275768849411426
397,5.086,0.00595235780997259
398,5.094,0.0071296870916139
399,5.101,0.0256931580905165
400,5.109,0.0233987349788527
401,5.116,0.025063423823592
402,5.124,0.0239134742926866
403,5.131,0.0280368647535048
404,5.139,0.00691612503587432
405,5.147,0.0200803091896683
406,5.154,0.018415620344929
407,5.162,0.0245048769085808
408,5.169,0.0240448970962186
409,5.177,0.0170740125588726
410,5.184,0.00993337356696438
411,5.192,0.0226704336092792
412,5.199,0.00277630672461463
413,5.207,0.012676824590696
414,5.214,0.0169809214063708
415,5.222,0.0184703798464007
416,5.229,0.0218873727382341
417,5.237,0.00877247213576457
418,5.244,0.0109628521946321
419,5.252,0.0171725796615217
420,5.260,0.0239901375947469
421,5.267,0.0112092699512547
422,5.275,0.0208578941105663
423,5.282,0.0231468412720829
424,5.290,0.0117404371155301
425,5.297,0.0093310190507758
426,5.305,0.0120854219748018
427,5.312,0.00802226696560243
428,5.320,0.0201898281926117
429,5.327,0.00748014790103271
430,5.335,0.0210221726149814
431,5.342,0.0284475610145424
432,5.350,0.0208414662601248
433,5.358,0.0141772349310203
434,5.365,0.0113352168046396
435,5.373,0.00845486702722878
436,5.380,0.0149055363005937
437,5.388,0.0190836862628836
438,5.395,0.0257917251931655
439,5.403,0.0259888593984636
440,5.410,0.0245377326094638
441,5.418,0.00797845936442508
442,5.425,0.0142210425321976
443,5.433,0.0135091690130657
444,5.440,0.0139472450248392
445,5.448,0.0170028252069594
446,5.455,0.0127808676434922
447,5.463,0.0303422397654629
448,5.471,0.0239791856944526
449,5.478,0.0404398918368423
450,5.486,0.0179501645824196
451,5.493,0.00379483345198805
452,5.501,0.0297344092991271
453,5.508,0.0325380957744776
454,5.516,0.0248827174687355
455,5.523,0.0242310794012224
456,5.531,0.00822487712104768
457,5.538,0.0093310190507758
458,5.546,0.0259669555978749
459,5.553,0.0153490882625144
460,5.561,0.00902436584253434
461,5.569,0.0174025695677028
462,5.576,0.0165592732450387
463,5.584,0.0159952503798804
464,5.591,0.0409382033002347
465,5.599,0.0244939250082865
466,5.606,0.0202336357937891
467,5.614,0.0111490344996359
468,5.621,0.0151355262067748
469,5.629,0.00983480646431534
470,5.636,0.0114721155583188
471,5.644,0.0189139318083214
472,5.651,0.0138212981714543
473,5.659,0.0181801544886007
474,5.666,0.0203486307468796
475,5.674,0.0255069757855127
476,5.682,0.0179775443331555
477,5.689,0.0202719674448193
478,5.697,0.0261805176536145
479,5.704,0.0221392664450039
480,5.712,0.012353743532013
481,5.719,0.0220626031429435
482,5.727,0.0182568177906611
483,5.734,0.0350241771412923
484,5.742,0.0174299493184386
485,5.749,0.0195217622746571
486,5.757,0.0117075814146471
487,5.764,0.0143688931861712
488,5.772,0.0211754992191021
489,5.779,0.0306981765250288
490,5.787,0.0226868614597207
491,5.795,0.0163676149898878
492,5.802,0.0150533869545673
493,5.810,0.0244555933572563
494,5.817,0.023634200835181
495,5.825,0.00433695251655777
496,5.832,0.0181801544886007
497,5.840,0.0117240092650886
498,5.847,0.00846581892752312
499,5.855,0.0373569319039862
500,5.862,0.00711873519131957
501,5.870,0.0216135752308756
502,5.877,0.0205950485035022
503,5.885,0.0160938174825294
504,5.893,0.00375650180095786
505,5.900,0.0146481666436768
506,5.908,0.0132517993561487
507,5.915,0.0259505277474334
508,5.923,0.00541571469555004
509,5.930,0.0365191115314694
510,5.938,0.0308515031291496
511,5.945,0.0302984321642855
512,5.953,0.0407410690949366
513,5.960,0.0227963804626641
514,5.968,0.0382002282266502
515,5.975,0.0227306690608981
516,5.983,0.0126823005408432
517,5.990,0.0151793338079522
518,5.998,0.0151355262067748
519,6.006,0.0323300096688852
520,6.013,0.0205786206530607
521,6.021,0.0291101509823499
522,6.028,0.0284092293635122
523,6.036,0.0129615739983488
524,6.043,0.0186291824006686
525,6.051,0.0226704336092792
526,6.058,0.0286830268708707
527,6.066,0.0239025223923922
528,6.073,0.0243460743543129
529,6.081,0.0338632757100925
530,6.088,0.0282175711083613
531,6.096,0.0305174701701723
532,6.104,0.0258245808940485
533,6.111,0.0257150618911051
534,6.119,0.0144838881392617
535,6.126,0.028693978771165
536,6.134,0.0272045203311351
537,6.141,0.0320397843110852
538,6.149,0.0366560102851486
539,6.156,0.0222925930491246
540,6.164,0.0255945909878674
541,6.171,0.0205676687527664
542,6.179,0.0276864039440859
543,6.186,0.0134653614118883
544,6.194,0.0158583516262011
545,6.201,0.0122004169278923
546,6.209,0.011833528268032
547,6.217,0.0164004706907709
548,6.224,0.0161102453329709
549,6.232,0.018514187447578
550,6.239,0.0253810289321278
551,6.247,0.0158802554267898
552,6.254,0.0143196096348467
553,6.262,0
554,6.269,0.00714611494205541
555,6.277,0.00484621588024447
556,6.284,0.0196860407790722
557,6.292,0.0198448433333401
558,6.299,0.013618688016009
559,6.307,0.023020894418698
560,6.315,0.0163457111892992
561,6.322,0.00869033288355704
562,6.330,0.0132353715057072
563,6.337,0.0240339451959243
564,6.345,0.0156831212214917
565,6.352,0.0158912073270841
566,6.360,0.0148069691979447
567,6.367,0.0143469893855825
568,6.375,0.0276699760936444
569,6.382,0.0110066597958095
570,6.390,0.017539468321382
571,6.397,0.00893127469003247
572,6.405,0.0089969860917985
573,6.412,0.0234261147295885
574,6.420,0.0204088661984985
575,6.428,0.0243789300551959
576,6.435,0.0271169051287804
577,6.443,0.00635757812086309
578,6.450,0.0141224754295486
579,6.458,0.00884365948767777
580,6.465,0.0157159769223747
581,6.473,0.017473756919616
582,6.480,0.0439335480307361
583,6.488,0.0846362854746425
584,6.495,0.0718882735320333
585,6.503,0.0293620446891196
586,6.510,0.0264269354102371
587,6.518,0.027396178586286
588,6.525,0.0166797441482765
589,6.533,0.0159131111276728
590,6.541,0.0123592194821602
591,6.548,0.0227416209611924
592,6.556,0.0236068210844451
593,6.563,0.0252715099291845
594,6.571,0.0130601411009978
595,6.578,0.0201241167908457
596,6.586,0.029372996589414
597,6.593,0.0283708977124821
598,6.601,0.0307310322259119
599,6.608,0.0159678706291445
600,6.616,0.0183718127437517
601,6.623,0.0176489873243254
602,6.631,0.0247458187150562
603,6.639,0.0320945438125569
604,6.646,0.0279930571523274
605,6.654,0.0303203359648742
606,6.661,0.0293620446891196
607,6.669,0.0228237602134
608,6.676,0.0130382373004091
609,6.684,0.023343975477381
610,6.691,0.0113078370539038
611,6.699,0.0105138242825643
612,6.706,0.0140403361773411
613,6.714,0.0218654689376454
614,6.721,0.0247129630141732
615,6.729,0.0113899763061113
616,6.736,0.026229801204939
617,6.744,0.0217449980344077
618,6.752,0.012386599232896
619,6.759,0.0133722702593864
620,6.767,0.0156174098197257
621,6.774,0.0303367638153157
622,6.782,0.0226430538585434
623,6.789,0.0166304605969519
624,6.797,0.0274728418883464
625,6.804,0.0152779009106012
626,6.812,0.030183437211195
627,6.819,0.0173259062656424
628,6.827,0.00496668678348219
629,6.834,0.0126330169895186
630,6.842,0.015239569259571
631,6.850,0.0126603967402545
632,6.857,0.0110504673969868
633,6.865,0.00856986198031933
634,6.872,0.0305886575220855
635,6.880,0.0289403965277876
636,6.887,0.0108588091418359
637,6.895,0.0105247761828586
638,6.902,0.0231906488732603
639,6.910,0.0181308709372762
640,6.917,0.036929807792507
641,6.925,0.0232618362251735
642,6.932,0.031382670293425
643,6.940,0.0236232489348866
644,6.947,0.021367157474253
645,6.955,0.0174080455178499
646,6.963,0.0255453074365429
647,6.970,0.0291758623841159
648,6.978,0.0291539585835272
649,6.985,0.0138267741216015
650,6.993,0.0181199190369819
651,7.000,0.0364534001297034
652,7.008,0.0151683819076578
653,7.015,0.0409436792503819
654,7.023,0.0451820646642906
655,7.030,0.0663630398335399
656,7.038,0.0456803761276829
657,7.045,0.0264707430114145
658,7.053,0.022046175292502
659,7.061,0.0339727947130358
660,7.068,0.0132244196054129
661,7.076,0.0176654151747669
662,7.083,0.0153490882625144
663,7.091,0.0241982237003394
664,7.098,0.0133777462095336
665,7.106,0.0221940259464755
666,7.113,0.0173094784152009
667,7.121,0.010179791323587
668,7.128,0.024608919961377
669,7.136,0.0210495523657172
670,7.143,0.0275987887417312
671,7.151,0.0193191521192119
672,7.158,0.031092444935625
673,7.166,0.0562982434630434
674,7.174,0.0293182370879423
675,7.181,0.0364972077308807
676,7.189,0.0194615268230383
677,7.196,0.0351829796955602
678,7.204,0.0329925996366926
679,7.211,0.0306215132229685
680,7.219,0.0255398314863957
681,7.226,0.0662480448804493
682,7.234,0.0684822325404942
683,7.241,0.0715980481742333
684,7.249,0.0496394880840861
685,7.256,0.0601204566657673
686,7.264,0.0407301171946423
687,7.272,0.0341918327189226
688,7.279,0.0249484288705015
689,7.287,0.0419348262270194
690,7.294,0.0303422397654629
691,7.302,0.0256164947884561
692,7.309,0.0301286777097233
693,7.317,0.0179392126821253
