#"+EI TIC Scan MEOH-PEEK-2Day.d "
#Point,X(Minutes),Y(Counts)
0,2.095,0.183563827138358
1,2.102,0.161444725786782
2,2.110,0.160999872351778
3,2.117,0.141636390889253
4,2.125,0.165293943703551
5,2.132,0.158695284417662
6,2.140,0.132609573270635
7,2.147,0.145516501405675
8,2.155,0.132461288792301
9,2.163,0.11842369150996
10,2.170,0.136681217904906
11,2.178,0.115495073062852
12,2.185,0.123329436334862
13,2.193,0.102489288608922
14,2.200,0.106116079808189
15,2.208,0.0995421346020224
16,2.215,0.0981519676176356
17,2.223,0.110243331121835
18,2.230,0.102149470012739
19,2.238,0.0963849109174818
20,2.245,0.0953160269694866
21,2.253,0.0978492201410358
22,2.261,0.0915965579712607
23,2.268,0.0825944544323652
24,2.276,0.0781829912019112
25,2.283,0.0849299349661349
26,2.291,0.0814390712053415
27,2.298,0.0873519147789332
28,2.306,0.0789614847131678
29,2.313,0.0924986218811295
30,2.321,0.0989922463281983
31,2.328,0.0639167886821378
32,2.336,0.0937837540266959
33,2.343,0.0928631545570353
34,2.351,0.07522348015515
35,2.358,0.0764035774618961
36,2.366,0.0763912204220349
37,2.374,0.0539817286337204
38,2.381,0.0785289883180252
39,2.389,0.110922968314202
40,2.396,0.257823458184333
41,2.404,0.25860813021552
42,2.411,0.163378602525062
43,2.419,0.0982940735760396
44,2.426,0.0859741048344076
45,2.434,0.0951553854512908
46,2.441,0.0892054707581155
47,2.449,0.113116342889568
48,2.456,0.0821619580372226
49,2.464,0.085479823239959
50,2.472,0.0800427257010241
51,2.479,0.0718129371534545
52,2.487,0.10662889696243
53,2.494,0.102798214605453
54,2.502,0.0773179984116261
55,2.509,0.0704413057288596
56,2.517,0.0766816108587735
57,2.524,0.0822855284358348
58,2.532,0.0826068114722264
59,2.539,0.0969595132710283
60,2.547,0.0817850683214555
61,2.554,0.0952109921306663
62,2.562,0.0792148040303227
63,2.569,0.0984423580543742
64,2.577,0.097058369589918
65,2.585,0.0767186819783571
66,2.592,0.0821372439575002
67,2.600,0.0848619712468982
68,2.607,0.0929990819955087
69,2.615,0.0755694772712641
70,2.622,0.0953963477285845
71,2.630,0.0763850419021043
72,2.637,0.073413173815482
73,2.645,0.0776392814480177
74,2.652,0.0790788765918493
75,2.660,0.0800983323803996
76,2.667,0.0740928110078488
77,2.675,0.0749516252782033
78,2.683,0.0609881702350297
79,2.690,0.072041542390887
80,2.698,0.0921958744045297
81,2.705,0.0950071009729562
82,2.713,0.0753594075936234
83,2.720,0.0819024602001371
84,2.728,0.108884056737101
85,2.735,0.100493626671336
86,2.743,0.0680934681552286
87,2.750,0.0911084548967427
88,2.758,0.0832184849453566
89,2.765,0.110502828958921
90,2.773,0.136532933426571
91,2.780,0.0847816504878003
92,2.788,0.0770955716941242
93,2.796,0.0681676103943959
94,2.803,0.0862397811914238
95,2.811,0.100716053388838
96,2.818,0.0752296586750806
97,2.826,0.0855416084392651
98,2.833,0.0764777197010634
99,2.841,0.0784548460788579
100,2.848,0.0633977930079667
101,2.856,0.0778802437253114
102,2.863,0.067080190886609
103,2.871,0.0762552929835616
104,2.878,0.067772185118837
105,2.886,0.069947024134411
106,2.894,0.0945437119781607
107,2.901,0.0712259777600468
108,2.909,0.0781953482417724
109,2.916,0.0736726716525675
110,2.924,0.0673767598432781
111,2.931,0.0904411747442371
112,2.939,0.053530696678786
113,2.946,0.102408967849824
114,2.954,1.37179824463306
115,2.961,17.7694542130277
116,2.969,60.2237266780953
117,2.976,100
118,2.984,13.1783134444717
119,2.991,0.216303804250649
120,2.999,0.154395034545958
121,3.007,0.132337718393689
122,3.014,0.115538322702366
123,3.022,0.109433945010925
124,3.029,0.0920228758464727
125,3.037,0.117286843842728
126,3.044,0.129742740022833
127,3.052,0.115161432986599
128,3.059,0.100011702116749
129,3.067,0.11425936907673
130,3.074,0.0939752881445447
131,3.082,0.083385304983483
132,3.089,0.0958226656037965
133,3.097,0.092270016643697
134,3.104,0.0994000286436184
135,3.112,0.0836139102209155
136,3.120,0.0940617874235733
137,3.127,0.126616408937946
138,3.135,0.0915903794513301
139,3.142,0.059202577975084
140,3.150,0.0974970445049912
141,3.157,0.0991899589659777
142,3.165,0.0804875791360279
143,3.172,0.0713495481586589
144,3.180,0.0780655993232296
145,3.187,0.0841205488552253
146,3.195,0.0549455777428952
147,3.202,0.0808026836524889
148,3.210,0.0564654936458247
149,3.218,0.0778431726057278
150,3.225,0.0647385318329086
151,3.233,0.070719339125737
152,3.240,0.0650845289490226
153,3.248,0.0950132794928868
154,3.255,0.20208085137039
155,3.263,0.340139879219821
156,3.270,0.180820564289168
157,3.278,0.0969286206713753
158,3.285,0.072152755749638
159,3.293,0.0632062588901179
160,3.300,0.0700335234134395
161,3.308,0.0956682026055313
162,3.315,0.083904300657654
163,3.323,0.0839969784566131
164,3.331,0.0687113201482894
165,3.338,0.0631630092506036
166,3.346,0.0643739991570027
167,3.353,0.0622053386613594
168,3.361,0.0591407927757779
169,3.368,0.0416741169319497
170,3.376,0.0675806510009882
171,3.383,0.0550011844222707
172,3.391,0.0388381762838007
173,3.398,0.053499804079133
174,3.406,0.0564654936458247
175,3.413,0.041637045812366
176,3.421,0.0470988574310233
177,3.429,0.0508677545886941
178,3.436,0.0442011315835682
179,3.444,0.0601355344846058
180,3.451,0.0631444736908118
181,3.459,0.0642195361587375
182,3.466,0.0447077702178781
183,3.474,0.0471729996701906
184,3.481,0.0809571466507541
185,3.489,0.120888920962272
186,3.496,0.0696380981378806
187,3.504,0.0449734465748942
188,3.511,0.0459620097637915
189,3.519,0.043212568394671
190,3.526,0.0567620626024939
191,3.534,0.0602405693234261
192,3.542,0.0519489955765504
193,3.549,0.0586650467411211
194,3.557,0.0487485222524956
195,3.564,0.0442567382629437
196,3.572,0.0516771406996037
197,3.579,0.0483839895765897
198,3.587,0.0383253591295602
199,3.594,0.0410377293790971
200,3.602,0.0415320109735457
201,3.609,0.0555140015765111
202,3.617,0.049057448249026
203,3.624,0.0428480357187651
204,3.632,0.0447757339371148
205,3.640,0.0523876704916236
206,3.647,0.0474201404674149
207,3.655,0.0478402798226962
208,3.662,0.0428542142386957
209,3.670,0.037367688540316
210,3.677,0.0509295397880001
211,3.685,0.0507071130704983
212,3.692,0.0545377954274751
213,3.700,0.04289746387821
214,3.707,0.0624401224187225
215,3.715,0.0432311039544628
216,3.722,0.0318626272821445
217,3.730,0.0560144616908904
218,3.737,0.0430581053964058
219,3.745,0.0551803615002583
220,3.753,0.039431314197139
221,3.760,0.0508986471883471
222,3.768,0.0431075335558507
223,3.775,0.0317205213237405
224,3.783,0.0421807555662595
225,3.790,0.0506082567516085
226,3.798,0.0493045890462503
227,3.805,0.05590942685207
228,3.813,0.0330303675490293
229,3.820,0.0459002245644854
230,3.828,0.0441208108244703
231,3.835,0.0328202978713887
232,3.843,0.0530240580444762
233,3.850,0.0509171827481389
234,3.858,0.0396969905541552
235,3.866,0.0298607868246275
236,3.873,0.0291255429528852
237,3.881,0.0404013418262444
238,3.888,0.0378187204952504
239,3.896,0.0408770878609012
240,3.903,0.0349704228072402
241,3.911,0.0283346924017674
242,3.918,0.0361999482734311
243,3.926,0.0287548317570487
244,3.933,0.0303550684190762
245,3.941,0.0350260294866157
246,3.948,0.0303241758194231
247,3.956,0.0358415941174559
248,3.964,0.0688039979472485
249,3.971,0.105627976733671
250,3.979,0.0517759970184934
251,3.986,0.0259992118679977
252,3.994,0.0511890376250857
253,4.001,0.0247944004815291
254,4.009,0.0281740508835716
255,4.016,0.0285756546790611
256,4.024,0.0205682928489934
257,4.031,0.0426812156806387
258,4.039,0.03862810660616
259,4.046,0.0342537144952897
260,4.054,0.022953201542208
261,4.061,0.0208092551262871
262,4.069,0.0314857375663774
263,4.077,0.0363049831122515
264,4.084,0.0505773641519555
265,4.092,0.147166166227147
266,4.099,0.207103988073974
267,4.107,0.112164850820254
268,4.114,0.0417173665714639
269,4.122,0.0423970037638308
270,4.129,0.0254616806340348
271,4.137,0.0216557123567804
272,4.144,0.0239788358506889
273,4.152,0.0405805189042321
274,4.159,0.0333516505854209
275,4.167,0.0315784153653365
276,4.175,0.0311644545299858
277,4.182,0.0257953207102876
278,4.190,0.0234227690569342
279,4.197,0.0309852774519981
280,4.205,0.0269692394971031
281,4.212,0.0186405946306438
282,4.220,0.0306639944156065
283,4.227,0.0337408973410492
284,4.235,0.0248500071609046
285,4.242,0.0315598798055447
286,4.250,0.0242506907276356
287,4.257,0.0365521239094758
288,4.265,0.0280813730846125
289,4.272,0.0314424879268631
290,4.280,0.0277044833688454
291,4.288,0.0208154336462177
292,4.295,0.00889706870007524
293,4.303,0.0267282772198094
294,4.310,0.0151435523499197
295,4.318,0.0290822933133709
296,4.325,0.0274264499719681
297,4.333,0.0314363094069325
298,4.340,0.0132591037710844
299,4.348,0.0266912061002257
300,4.355,0.0247944004815291
301,4.363,0.0201481534937121
302,4.370,0.0298484297847663
303,4.378,0.0260857111470262
304,4.386,0.0232497704988772
305,4.393,0.0233733408974893
306,4.401,0.0250106486791004
307,4.408,0.0436636003496054
308,4.416,0.0977256497424237
309,4.423,0.111676747745736
310,4.431,0.0500398329179926
311,4.438,0.0447571983773229
312,4.446,0.0340189307379266
313,4.453,0.0307443151747044
314,4.461,0.0246152234035415
315,4.468,0.0198268704573205
316,4.476,0.0255481799130633
317,4.483,0.0170650720483388
318,4.491,0.0247696864018067
319,4.499,0.0294962541487217
320,4.506,0.0219955309529638
321,4.514,0.0240653351297174
322,4.521,0.0195488370604431
323,4.529,0.0290266866339955
324,4.536,0.027222558814258
325,4.544,0.0136792431263657
326,4.551,0.0285015124398938
327,4.559,0.0313807027275571
328,4.566,0.0329932964294457
329,4.574,0.0171762854070897
330,4.581,0.019629157819541
331,4.589,0.0296383601071256
332,4.596,0.0242383336877744
333,4.604,0.0299596431435173
334,4.612,0.0150941241904749
335,4.619,0.0298607868246275
336,4.627,0.0195673726202349
337,4.634,0.0317266998436711
338,4.642,0.0270001320967561
339,4.649,0.0324495866755522
340,4.657,0.0130613911333049
341,4.664,0.0276241626097475
342,4.672,0.0300955705819906
343,4.679,0.0186158805509213
344,4.687,0.0321035895594382
345,4.694,0.0262154600655689
346,4.702,0.0254122524745899
347,4.710,0.0320170902804097
348,4.717,0.0355697392405091
349,4.725,0.0267838838991848
350,4.732,0.0186097020309907
351,4.740,0.0244731174451375
352,4.747,0.0259868548281364
353,4.755,0.0155451561454092
354,4.762,0.00915656653716077
355,4.770,0.023410412017073
356,4.777,0.0291873281521913
357,4.785,0.0187765220691171
358,4.792,0.0204200083706588
359,4.800,0.0350507435663381
360,4.807,0.0342042863358448
361,4.815,0.039258315639082
362,4.823,0.0189742347068966
363,4.830,0.0243310114867335
364,4.838,0.0411674782976398
365,4.845,0.0589245445782067
366,4.853,0.0410315508591664
367,4.860,0.0161382940587476
368,4.868,0.0136792431263657
369,4.875,0.0301697128211579
370,4.883,0.0223724206687309
371,4.890,0.0339818596183429
372,4.898,0.0113066914730123
373,4.905,0.033555541743131
374,4.913,0.0251156835179207
375,4.921,0.0245781522839579
376,4.928,0.0279207315664167
377,4.936,0.0127215725371215
378,4.943,0.0194932303810676
379,4.951,0.01484080487332
380,4.958,0.0182204552753624
381,4.966,0.0105158409218945
382,4.973,0.0153103723880461
383,4.981,0.0130428555735131
384,4.988,0.029317077070734
385,4.996,0.0167005393724329
386,5.003,0.0159776525405518
387,5.011,0.0163977918958331
388,5.018,0.0146430922355405
389,5.026,0.0216371767969885
390,5.034,0.0187579865093253
391,5.041,0.0257088214312591
392,5.049,0.0246584730430558
393,5.056,0.0289278303151058
394,5.064,0.0274511640516905
395,5.071,0.0330241890290987
396,5.079,0.0271175239754377
397,5.086,0.0160641518195803
398,5.094,0.0147048774348466
399,5.101,0.0131293548525416
400,5.109,0.0525668475696112
401,5.116,0.0279145530464861
402,5.124,0.020889575885385
403,5.132,0.0184119893932113
404,5.139,0.0357859874380804
405,5.147,0.0231014860205426
406,5.154,0.0274944136912047
407,5.162,0.0160270806999967
408,5.169,0.0226504540656082
409,5.177,0.0200431186548917
410,5.184,0.0244175107657621
411,5.192,0.018479953112448
412,5.199,0.0165090052545841
413,5.207,0.0145009862771365
414,5.214,0.0280134093653758
415,5.222,0.0156192983845765
416,5.229,0.00703733420096229
417,5.237,0.0217113190361558
418,5.245,0.0188753783880069
419,5.252,0.0220943872718535
420,5.260,0.0264255297432096
421,5.267,0.00800118331013711
422,5.275,0.0211799663221236
423,5.282,0.0175593536427874
424,5.290,0.0314857375663774
425,5.297,0.011720652308363
426,5.305,0.0197218356185001
427,5.312,0.0224342058680369
428,5.320,0
429,5.327,0.0342042863358448
430,5.335,0.0197836208178062
431,5.343,0.0167252534521553
432,5.350,0.0116712241489181
433,5.358,0.00887235462035281
434,5.365,0.0216248197571273
435,5.373,0.0168920734902817
436,5.380,0.022922308942555
437,5.388,0.0222488502701187
438,5.395,0.0226319185058164
439,5.403,0.0246399374832639
440,5.410,0.0148655189530424
441,5.418,0.00924306581618928
442,5.425,0.00923688729625867
443,5.433,0.016336006696527
444,5.440,0.0173307484053549
445,5.448,0.0080691470293738
446,5.456,0.0222550287900493
447,5.463,0.0331106883081272
448,5.471,0.0297186808662235
449,5.478,0.0379052197742789
450,5.486,0.0331786520273639
451,5.493,0.0245905093238191
452,5.501,0.0154648353863113
453,5.508,0.0282790857223919
454,5.516,0.0193634814625249
455,5.523,0.0313065604883898
456,5.531,0.0252577894763247
457,5.538,0.0104416986827272
458,5.546,0.017707638121122
459,5.553,0.0131787830119865
460,5.561,0.0147110559547772
461,5.569,0.0179300648386239
462,5.576,0.0237502306132564
463,5.584,0.0168364668109063
464,5.591,0.0256655717917448
465,5.599,0.0137472068456024
466,5.606,0.031034705611443
467,5.614,0.016336006696527
468,5.621,0.00603641397220383
469,5.629,0.0254555021141042
470,5.636,0.0269815965369643
471,5.644,0.0184243464330725
472,5.651,0.0228852378229713
473,5.659,0.0117762589877385
474,5.667,0.0204200083706588
475,5.674,0.0302994617397007
476,5.682,0.0299658216634479
477,5.689,0.0385910354865764
478,5.697,0.0358848437569701
479,5.704,0.0251465761175738
480,5.712,0.0349024590880035
481,5.719,0.0227863815040816
482,5.727,0.0421066133270922
483,5.734,0.0359960571157211
484,5.742,0.0258138562700794
485,5.749,0.0262834237848056
486,5.757,0.032579335594095
487,5.764,0.0227616674243592
488,5.772,0.0200925468143366
489,5.780,0.0238490869321461
490,5.787,0.0234907327761709
491,5.795,0.0339200744190369
492,5.802,0.0123323257814932
493,5.810,0.0205868284087852
494,5.817,0.0332033661070864
495,5.825,0.0200369401349611
496,5.832,0.022322992509286
497,5.840,0.0287177606374651
498,5.847,0.0210255033238584
499,5.855,0.0163112926168046
500,5.862,0.0223168139893554
501,5.870,0.042094256287231
502,5.878,0.0255111087934796
503,5.885,0.0258509273896631
504,5.893,0.0182019197155706
505,5.900,0.0263513875040423
506,5.908,0.0230520578610977
507,5.915,0.0217113190361558
508,5.923,0.0285694761591305
509,5.930,0.0282852642423225
510,5.938,0.0281122656842655
511,5.945,0.0441640604639846
512,5.953,0.0112696203534286
513,5.960,0.0172936772857713
514,5.968,0.0165090052545841
515,5.975,0.0257458925508427
516,5.983,0.0250230057189616
517,5.991,0.0306022092163005
518,5.998,0.00795793367062285
519,6.006,0.024386618166109
520,6.013,0.00774786399298219
521,6.021,0.0188753783880069
522,6.028,0.0323939799961767
523,6.036,0.00667898004498704
524,6.043,0.0221994221106738
525,6.051,0.0173183913654937
526,6.058,0.022038780592478
527,6.066,0.0265429216218911
528,6.073,0.0144392010778304
529,6.081,0.0258756414693855
530,6.089,0.0310655982110961
531,6.096,0.0211305381626787
532,6.104,0.0325175503947889
533,6.111,0.0276550552094005
534,6.119,0.0238861580517298
535,6.126,0.031522808685961
536,6.134,0.0295889319476808
537,6.141,0.0280195878853064
538,6.149,0.0363976609112106
539,6.156,0.020716577327328
540,6.164,0.0270989884156458
541,6.171,0.0214641782389315
542,6.179,0.034012752217996
543,6.186,0.0198145134174592
544,6.194,0.0205682928489934
545,6.202,0.00591284357359167
546,6.209,0.0218039968351149
547,6.217,0.0232003423394323
548,6.224,0.01189365086642
549,6.232,0.0340992514970245
550,6.239,0.0216186412371967
551,6.247,0.0245349026444436
552,6.254,0.0287362961972569
553,6.262,0.0213344293203888
554,6.269,0.0272905225334947
555,6.277,0.0303859610187292
556,6.284,0.0360887349146802
557,6.292,0.0212170374417072
558,6.299,0.0210440388836502
559,6.307,0.0242074410881214
560,6.315,0.0177756018403587
561,6.322,0.0213529648801806
562,6.330,0.0214579997190009
563,6.337,0.0205250432094791
564,6.345,0.0138831342840757
565,6.352,0.0151250167901279
566,6.360,0.0284953339199632
567,6.367,0.0189804132268272
568,6.375,0.0115105826307223
569,6.382,0.0265676357016136
570,6.390,0.0192893392233576
571,6.397,0.0259744977882752
572,6.405,0.0300090713029621
573,6.413,0.0221561724711596
574,6.420,0.0346985679302934
575,6.428,0.0256346791920918
576,6.435,0.0162186148178455
577,6.443,0.0234783757363097
578,6.450,0.0200492971748223
579,6.458,0.010744446159327
580,6.465,0.0251403975976432
581,6.473,0.0191781258646066
582,6.480,0.0310717767310267
583,6.488,0.0410686219787501
584,6.495,0.0324866577951358
585,6.503,0.0295889319476808
586,6.510,0.024040621049995
587,6.518,0.0237069809737422
588,6.526,0.0287239391573957
589,6.533,0.0250353627588228
590,6.541,0.0274202714520374
591,6.548,0.0237873017328401
592,6.556,0.0270680958159928
593,6.563,0.0297866445854602
594,6.571,0.0182142767554318
595,6.578,0.0225577762666491
596,6.586,0.022953201542208
597,6.593,0.0316896287240874
598,6.601,0.0380782183323359
599,6.608,0.0139881691228961
600,6.616,0.0366077305888513
601,6.624,0.0295889319476808
602,6.631,0.0517451044188404
603,6.639,0.0214271071193479
604,6.646,0.0267591698194624
605,6.654,0.0156378339443684
606,6.661,0.0205126861696179
607,6.669,0.0274079144121762
608,6.676,0.0225454192267879
609,6.684,0.0165460763741677
610,6.691,0.0241765484884683
611,6.699,0.0256532147518836
612,6.706,0.0141920602806061
613,6.714,0.0253442887553532
614,6.721,0.0287301176773263
615,6.729,0.0256964643913979
616,6.737,0.0323754444363849
617,6.744,0.0272658084537723
618,6.752,0.0300708565022682
619,6.759,0.0323013021972176
620,6.767,0.0189000924677293
621,6.774,0.0159220458611763
622,6.782,0.0250786123983371
623,6.789,0.0123323257814932
624,6.797,0.0393262793583187
625,6.804,0.0249303279200025
626,6.812,0.0105405550016169
627,6.819,0.017849744079526
628,6.827,0.032153017718883
629,6.835,0.0271298810152989
630,6.842,0.0391100311607474
631,6.850,0.0336235054623677
632,6.857,0.0222488502701187
633,6.865,0.0309111352128309
634,6.872,0.0135124230882393
635,6.880,0.0262092815456383
636,6.887,0.0317390568835323
637,6.895,0.0178064944400117
638,6.902,0.0280566590048901
639,6.910,0.0194499807415534
640,6.917,0.0248005790014597
641,6.925,0.0313745242076264
642,6.932,0.021723676076017
643,6.940,0.0200925468143366
644,6.948,0.0260918896669568
645,6.955,0.0221438154312984
646,6.963,0.0291749711123301
647,6.970,0.0267838838991848
648,6.978,0.0336667551018819
649,6.985,0.019913369736349
650,6.993,0.0373120818609405
651,7.000,0.0230273437813753
652,7.008,0.0281246227241267
653,7.015,0.031949126561173
654,7.023,0.0461102942421261
655,7.030,0.0319244124814505
656,7.038,0.0411551212577786
657,7.046,0.0290452221937873
658,7.053,0.0291873281521913
659,7.061,0.0301079276218518
660,7.068,0.026308137864528
661,7.076,0.0194376237016922
662,7.083,0.0238614439720073
663,7.091,0.0236513742943667
664,7.098,0.0160579732996497
665,7.106,0.0284150131608653
666,7.113,0.0241456558888153
667,7.121,0.028940187354967
668,7.128,0.0273523077328008
669,7.136,0.0292243992717749
670,7.143,0.0323878014762461
671,7.151,0.0324186940758992
672,7.159,0.0365830165091288
673,7.166,0.0550135414621319
674,7.174,0.01504469603103
675,7.181,0.0308122788939411
676,7.189,0.0383562517292133
677,7.196,0.0265861712614054
678,7.204,0.0201728675734345
679,7.211,0.0310594196911654
680,7.219,0.0343154996945958
681,7.226,0.0370464055039244
682,7.234,0.0467590388348399
683,7.241,0.0465427906372686
684,7.249,0.0481553843391572
685,7.256,0.0374171166997609
686,7.264,0.0426935727204999
687,7.272,0.039085317081025
688,7.279,0.04289746387821
689,7.287,0.0395116349562369
690,7.294,0.0278033396877351
691,7.302,0.0327894052717356
692,7.309,0.0340065736980654
693,7.317,0.0352299206443257
694,7.324,0.0355450251607867
695,7.332,0.0276550552094005
