#"+EI TIC Scan MEOH-SLA.d "
#Point,X(Minutes),Y(Counts)
0,2.095,0.153562677467784
1,2.102,0.144006921337147
2,2.110,0.184385379573374
3,2.117,0.131176103424894
4,2.125,0.123883552693619
5,2.132,0.123512339109596
6,2.140,0.110046865714983
7,2.147,0.120231290012109
8,2.155,0.102167558028317
9,2.162,0.103796107945318
10,2.170,0.115680929949901
11,2.178,0.498276401443542
12,2.185,1.45525304642116
13,2.193,0.709999865285393
14,2.200,0.245557785830718
15,2.208,0.169991872218705
16,2.215,0.146389873053935
17,2.223,0.135480983536378
18,2.230,0.119536761371035
19,2.238,0.119039814153715
20,2.245,0.0985272699785504
21,2.253,0.0907257973982119
22,2.260,0.0720453718796729
23,2.268,0.0843792425746057
24,2.275,0.0830261091876859
25,2.283,0.071991486036831
26,2.291,0.059837234818038
27,2.298,0.0694169402121605
28,2.306,0.0605317634591119
29,2.313,0.046527431636079
30,2.321,0.0531134790945382
31,2.328,0.0548498006972229
32,2.336,0.0638307745042128
33,2.343,0.0576279152615185
34,2.351,0.0621543260602414
35,2.358,0.0503533264778567
36,2.366,0.0754222180311011
37,2.373,0.0489043960369956
38,2.381,0.0584182409565336
39,2.389,0.0619387826888736
40,2.396,0.161340200784638
41,2.404,0.231900718328222
42,2.411,0.169500912317256
43,2.419,0.0739194017473981
44,2.426,0.0415280228835213
45,2.434,0.0541133608450498
46,2.441,0.0591367188610928
47,2.449,0.200844510903651
48,2.456,0.363316314387969
49,2.464,0.152646618139472
50,2.471,0.0463837360551671
51,2.479,0.0403245723933846
52,2.486,0.0847624307903706
53,2.494,1.05852750947119
54,2.502,2.86685856014034
55,2.509,1.37868725105863
56,2.517,0.530560008621735
57,2.524,0.327584013267892
58,2.532,0.260160849240883
59,2.539,0.233014359080288
60,2.547,0.197982573917157
61,2.554,0.167818476557413
62,2.562,0.141594033041003
63,2.569,0.133978167252675
64,2.577,0.119279306788568
65,2.584,0.117944135349263
66,2.592,0.118758410307763
67,2.600,0.102544758928211
68,2.607,0.117812414400093
69,2.615,0.0941984406035813
70,2.622,0.078445812546121
71,2.630,0.0762364929896015
72,2.637,0.09301893937693
73,2.645,0.0590528964388942
74,2.652,0.158538136956857
75,2.660,0.359759848760401
76,2.667,0.226847423732822
77,2.675,0.139468535906682
78,2.682,0.169908049796506
79,2.690,0.241432525195374
80,2.697,0.160687583354663
81,2.705,0.107166966780875
82,2.713,0.0911928080361754
83,2.720,0.078224281858882
84,2.728,0.11441161898518
85,2.735,0.119339179947282
86,2.743,0.0857323759615255
87,2.750,0.0907377720299545
88,2.758,0.0735362135316332
89,2.765,0.0702671390658889
90,2.773,0.107753723736265
91,2.780,0.0728416848905594
92,2.788,0.0684230457775203
93,2.795,0.0609448882542334
94,2.803,0.0914502626186424
95,2.811,0.095988648049108
96,2.818,0.0699977098516792
97,2.826,0.042623701687974
98,2.833,0.0508861975904047
99,2.841,0.0680278829300128
100,2.848,0.0475632372818185
101,2.856,0.0598671713973946
102,2.863,0.0511316775411291
103,2.871,0.0513352462807542
104,2.878,0.0566160588792643
105,2.886,0.0872591415087138
106,2.893,0.0689080183630978
107,2.901,0.0486768780338852
108,2.908,0.0630164995457124
109,2.916,0.0709616677069628
110,2.924,0.0874507356165962
111,2.931,0.0687343862028293
112,2.939,0.0387379336874831
113,2.946,0.0565621730364223
114,2.954,0.268076080822777
115,2.961,6.82118731467386
116,2.969,40.9450978102889
117,2.976,95.2199724882836
118,2.984,54.846681305654
119,2.991,0.861598703147382
120,2.999,0.117926173401649
121,3.006,0.0852893145870473
122,3.014,0.074595968440858
123,3.021,0.057436321153636
124,3.029,0.0630344614933264
125,3.037,0.121494613660959
126,3.044,0.160573824353108
127,3.052,0.0758772540373219
128,3.059,0.062477641117293
129,3.067,0.0537960331038695
130,3.074,0.0588014291722985
131,3.082,0.0322297213353511
132,3.089,0.0440247336018645
133,3.097,0.0403664836044839
134,3.104,0.040294635814028
135,3.112,0.0532272380960934
136,3.119,0.0437732663352687
137,3.127,0.0630284741774551
138,3.135,0.0536822741023142
139,3.142,0.0358819840168603
140,3.150,0.0368219926086586
141,3.157,0.0381930879431923
142,3.165,0.0542331071624763
143,3.172,0.0418453506247016
144,3.180,0.040570052344109
145,3.187,0.0541253354767924
146,3.195,0.0225781681507726
147,3.202,0.0250090183945312
148,3.210,0.0281284099634923
149,3.217,0.041761528202503
150,3.225,0.0203927978577384
151,3.232,0.0288049766569522
152,3.240,0.0219854238795113
153,3.248,0.0214465654510919
154,3.255,0.0466232286900202
155,3.263,0.0377919377798135
156,3.270,0.0419351603627715
157,3.278,0.00829243248178733
158,3.285,0.00605317634591119
159,3.293,0.0217219819811729
160,3.300,0.0161358162732252
161,3.308,0.029643200878938
162,3.315,0.0329541865557816
163,3.323,0.035217391955143
164,3.330,0.0274518432700324
165,3.338,0.0275416530081023
166,3.346,0.0534487687833325
167,3.353,0.0510777916982872
168,3.361,0.0515627642838646
169,3.368,0.0324392773908475
170,3.376,0.0274219066906758
171,3.383,0.0139983445071616
172,3.391,0.0390073629016928
173,3.398,0.02902052002832
174,3.406,0.0162016767478098
175,3.413,0.0553227986510577
176,3.421,0.0304574758374384
177,3.428,0.00628668166489292
178,3.436,0.0207640114417606
179,3.443,0.0223925613587615
180,3.451,0.0179739222457224
181,3.459,0.0167644844397145
182,3.466,0.0107172954096746
183,3.474,0.0218357409827281
184,3.481,0.044731236874681
185,3.489,0.0681895404585386
186,3.496,0.0646809733579412
187,3.504,0.0268650863146424
188,3.511,0.0149084165196032
189,3.519,0.0260388367243994
190,3.526,0.0346545842632383
191,3.534,0.0246976779692222
192,3.541,0.0168004083349424
193,3.549,0.0372830159307507
194,3.557,0.0277571963794701
195,3.564,0.010376018405009
196,3.572,0.0119686444267819
197,3.579,0.0584302155882762
198,3.587,0.344390408918706
199,3.594,0.289923796437248
200,3.602,0.170854045704176
201,3.609,0.125530064558233
202,3.617,0.105274974965536
203,3.624,0.0996109741512606
204,3.632,0.0509161341697614
205,3.639,0.06156158178898
206,3.647,0.0614717720509101
207,3.654,0.0454916259903395
208,3.662,0.0354269480106395
209,3.670,0.0388157687938103
210,3.677,0.0478925396547414
211,3.685,0.0611484569938585
212,3.692,0.0309364611071445
213,3.700,0.0157466407415889
214,3.707,0.0210214660242277
215,3.715,0.040881392769418
216,3.722,0.0306550572611922
217,3.730,0.0216561215065883
218,3.737,0.0326847573415719
219,3.745,0.0248054496549061
220,3.752,0.0177104803473841
221,3.760,0.0222488657778496
222,3.768,0.0163214230652363
223,3.775,0.0139863698754189
224,3.783,0
225,3.790,0.0180816939314063
226,3.798,0.0417375789390177
227,3.805,0.029643200878938
228,3.813,0.0273081476891206
229,3.820,0.0189797913121053
230,3.828,0.0244102868073985
231,3.835,0.0445216808191846
232,3.843,0.0246617540739942
233,3.850,0.0240450605392476
234,3.858,0.0239552508011777
235,3.865,0.0137828011357938
236,3.873,0.0152556808401402
237,3.881,0.0252784476087409
238,3.888,0.0302539070978133
239,3.896,0.0239013649583358
240,3.903,0.027571589587459
241,3.911,0.0301640973597434
242,3.918,0.0202311403292126
243,3.926,0.0245120711772111
244,3.933,0.024290540489972
245,3.941,0.0225362569396733
246,3.948,0.0310681820563137
247,3.956,0.0103101579304244
248,3.963,0.0343851550490286
249,3.971,0.0759371271960352
250,3.978,0.0528500371961999
251,3.986,0.0261466084100832
252,3.994,0.0348042671600215
253,4.001,0.627877840794277
254,4.009,2.73226968666879
255,4.016,1.37007150351979
256,4.024,0.351203974380275
257,4.031,0.189606319013171
258,4.039,0.150557044900379
259,4.046,0.127218487633947
260,4.054,0.113818874713919
261,4.061,0.0596755772895122
262,4.069,0.0853910989568599
263,4.076,0.0602563469290308
264,4.084,0.0646630114103272
265,4.092,0.0574602704171213
266,4.099,0.0347204447378229
267,4.107,0.0303676660993685
268,4.114,0.0457191439934499
269,4.122,0.0536942487340569
270,4.129,0.0583643551136916
271,4.137,0.0428572070069558
272,4.144,0.0590768457023795
273,4.152,0.0602084484020602
274,4.159,0.0480961083943665
275,4.167,0.059561818287957
276,4.174,0.04797636207694
277,4.182,0.0255119529277226
278,4.189,0.0519399651837582
279,4.197,0.156951498250955
280,4.205,0.205688249443554
281,4.212,0.0659622589544051
282,4.220,0.0410849615090431
283,4.227,0.0267333653654732
284,4.235,0.0225661935190299
285,4.242,0.00881332896259275
286,4.250,0.0398395998078072
287,4.257,0.0136091689755253
288,4.265,0.0390013755858214
289,4.272,0.011806986898256
290,4.280,0.0137109533453379
291,4.287,0.0274877671652604
292,4.295,0.0342893579950874
293,4.303,0.00731051267888977
294,4.310,0.0147347843593348
295,4.318,0.0127469954900543
296,4.325,0.0142318498261433
297,4.333,0.0175548101347296
298,4.340,0.0196563580055652
299,4.348,0.0280206382778085
300,4.355,0.0197761043229917
301,4.363,0.0145072663562243
302,4.370,0.00743624631218763
303,4.378,0.0156089324765484
304,4.385,0.0363370200230811
305,4.393,0.229643500244732
306,4.400,1.26140770777109
307,4.408,1.4065701810714
308,4.416,0.370710649489057
309,4.423,0.245216508826052
310,4.431,0.139348789589255
311,4.438,0.0644055568278602
312,4.446,0.0519220032361442
313,4.453,0.0378458236226554
314,4.461,0.0490361169861648
315,4.468,0.0451862728809018
316,4.476,0.0602383849814169
317,4.483,0.0498863158398932
318,4.491,0.0623279582205098
319,4.498,0.0525865952978615
320,4.506,0.321183572601444
321,4.514,1.5577499068224
322,4.521,3.56506341315922
323,4.529,2.16585164329368
324,4.536,0.79276253257474
325,4.544,0.545127148136673
326,4.551,0.424177380220004
327,4.559,0.351245885591375
328,4.566,0.309472382757129
329,4.574,0.271351142604393
330,4.581,0.20828674453171
331,4.589,0.211753400421208
332,4.596,0.183403459770476
333,4.604,0.162825055120727
334,4.611,0.140917466347543
335,4.619,0.128308179122529
336,4.627,0.131589228220016
337,4.634,0.0975872613867522
338,4.642,0.108340480691655
339,4.649,0.119129623891785
340,4.657,0.100652767112871
341,4.664,0.111926882898579
342,4.672,0.0953959037778466
343,4.679,0.0819603669625898
344,4.687,0.0617831124762191
345,4.694,0.0593283129689752
346,4.702,0.0812897875850012
347,4.709,0.0580829512677393
348,4.717,0.0613699876810976
349,4.724,0.061304127206513
350,4.732,0.0610945711510166
351,4.740,0.103011769566174
352,4.747,0.282104361909295
353,4.755,0.478536221015778
354,4.762,0.187265278507482
355,4.770,0.0957611300459976
356,4.777,0.0921567658914589
357,4.785,0.0678063522427737
358,4.792,0.049203761830562
359,4.800,0.065189895207004
360,4.807,0.0461262814727001
361,4.815,0.0374147368799199
362,4.822,0.0625435015918776
363,4.830,0.0745720191773727
364,4.838,0.0730033424190852
365,4.845,0.096886745429807
366,4.853,0.442875767686157
367,4.860,0.916095252208197
368,4.868,0.342396632733554
369,4.875,0.124362537963325
370,4.883,0.0750869283423068
371,4.890,0.0675908088714059
372,4.898,0.081487369008755
373,4.905,0.11093897577981
374,4.913,0.0935158865942501
375,4.920,0.178697429495614
376,4.928,0.137816036726196
377,4.935,0.0794935928236032
378,4.943,0.0540714496339505
379,4.951,0.0642498866152057
380,4.958,0.0825351492862371
381,4.966,0.239019636899229
382,4.973,0.194725474083155
383,4.981,0.0799725780933093
384,4.988,0.0385822634748286
385,4.996,0.0446593890842251
386,5.003,0.0295953023519674
387,5.011,0.157430483520661
388,5.018,1.0385418490927
389,5.026,1.14499632528488
390,5.033,0.30884371459064
391,5.041,0.142659775266099
392,5.049,0.139809812911347
393,5.056,0.106059313344679
394,5.064,0.109657690183347
395,5.071,0.102850112037648
396,5.079,0.0647947323594964
397,5.086,0.0835529929843626
398,5.094,0.0597773616593247
399,5.101,0.0375763944084457
400,5.109,0.0469764803264285
401,5.116,0.0475333007024618
402,5.124,0.0415100609359073
403,5.131,0.0499461889986065
404,5.139,0.0436834565971988
405,5.146,0.161112682781527
406,5.154,0.667304315806963
407,5.162,0.496420333523431
408,5.169,0.144791259716291
409,5.177,0.0935937217005773
410,5.184,0.0909832519806789
411,5.192,0.116477242960788
412,5.199,0.265441661839393
413,5.207,0.211561806313325
414,5.214,0.101754433233195
415,5.222,0.0782362564906246
416,5.229,0.0551371918590466
417,5.237,0.101544877177699
418,5.244,0.958192070099494
419,5.252,2.61741500630913
420,5.260,1.10601291164668
421,5.267,0.318034244453126
422,5.275,0.175769632034535
423,5.282,0.160034965924689
424,5.290,0.177164676632554
425,5.297,0.464370231664219
426,5.305,0.685595565793866
427,5.312,0.302557032925747
428,5.320,0.147527463069487
429,5.327,0.126577844835716
430,5.335,0.106777791249238
431,5.342,0.108963161542273
432,5.350,0.100293528160592
433,5.357,0.103023744197917
434,5.365,0.066087992587703
435,5.373,0.06575869021478
436,5.380,0.0833793608240942
437,5.388,0.0686445764647594
438,5.395,0.0794337196648899
439,5.403,0.0746438669678287
440,5.410,0.0569513485680586
441,5.418,0.0491379013559774
442,5.425,0.0540175637911085
443,5.433,0.0535804897325017
444,5.440,0.0573524987314374
445,5.448,0.0454437274633689
446,5.455,0.0593582495483319
447,5.463,0.059543856340343
448,5.470,0.0781344721208121
449,5.478,0.0695187245819731
450,5.486,0.0547899275385097
451,5.493,0.0497007090478821
452,5.501,0.0648486182023384
453,5.508,0.0657646775306513
454,5.516,0.0718058792448198
455,5.523,0.0803497789932029
456,5.531,0.106801740512724
457,5.538,0.0908156071362818
458,5.546,0.0666148763843797
459,5.553,0.0764819729403259
460,5.561,0.0516286247584492
461,5.568,0.0692852192629914
462,5.576,0.0386541112652845
463,5.584,0.0540235511069799
464,5.591,0.171829978191202
465,5.599,0.250964332062526
466,5.606,0.449533662935072
467,5.614,4.15295795856478
468,5.621,23.26406308236
469,5.629,60.6410379610795
470,5.636,100
471,5.644,45.0640597893363
472,5.651,2.78358098368606
473,5.659,1.73301660432374
474,5.666,1.26029406701902
475,5.674,1.05808444809671
476,5.681,0.881692135211554
477,5.689,0.801054965056528
478,5.697,0.746923642263864
479,5.704,0.631326534736161
480,5.712,0.53225441901332
481,5.719,0.524566705434537
482,5.727,0.477853667006447
483,5.734,0.442815894527444
484,5.742,0.386349518544963
485,5.749,0.372620603252011
486,5.757,0.325446541501828
487,5.764,0.310478251823512
488,5.772,0.28108651821117
489,5.779,0.282930611499538
490,5.787,0.281152378685754
491,5.795,0.249353744093139
492,5.802,0.223267008841769
493,5.810,0.227541952373896
494,5.817,0.207843683157231
495,5.825,0.21113071957059
496,5.832,0.192468255999665
497,5.840,0.197180273590399
498,5.847,0.197820916388631
499,5.855,0.191270792825399
500,5.862,0.181804846432832
501,5.870,0.186570749866408
502,5.877,0.172805910678228
503,5.885,0.153640512574112
504,5.892,0.160466052667424
505,5.900,0.135325313323724
506,5.908,0.160250509296056
507,5.915,0.17398541190488
508,5.923,0.147437653331417
509,5.930,0.154526635323068
510,5.938,0.123715907849221
511,5.945,0.139402675432097
512,5.953,0.128799139023978
513,5.960,0.140175039179498
514,5.968,0.141342565774407
515,5.975,0.129026657027088
516,5.983,0.109747499921416
517,5.990,0.116836481913067
518,5.998,0.115339652945236
519,6.006,0.115639018738802
520,6.013,0.121249133710235
521,6.021,0.116189851798964
522,6.028,0.111076684044851
523,6.036,0.142408307999503
524,6.043,0.113220143126786
525,6.051,0.122476533463857
526,6.058,0.105382746651219
527,6.066,0.155227151280013
528,6.073,0.149742769941878
529,6.081,0.103796107945318
530,6.088,0.0952162843017068
531,6.096,0.0982877773436974
532,6.103,0.100712640271585
533,6.111,0.0932344827482977
534,6.119,0.107993216371118
535,6.126,0.140432493761965
536,6.134,0.169680531793396
537,6.141,0.182229945859696
538,6.149,0.135103782636485
539,6.156,0.119458926264708
540,6.164,0.100227667686007
541,6.171,0.118500955725296
542,6.179,0.102670492561508
543,6.186,0.0990242171958706
544,6.194,0.07162625976868
545,6.201,0.101341308438074
546,6.209,0.0983057392913114
547,6.217,0.106634095668327
548,6.224,0.0892648923256082
549,6.232,0.0967490371647664
550,6.239,0.0855707184329997
551,6.247,0.0871932810341292
552,6.254,0.103059668093145
553,6.262,0.0755000531374284
554,6.269,0.113429699182282
555,6.277,0.120045683220098
556,6.284,0.121841877981496
557,6.292,0.100293528160592
558,6.299,0.0873489512467837
559,6.307,0.0914682245662564
560,6.314,0.0650641615737061
561,6.322,0.0876962155673206
562,6.330,0.0881153276783135
563,6.337,0.0732069111587103
564,6.345,0.0748234864439685
565,6.352,0.068435020409263
566,6.360,0.0830201218718146
567,6.367,0.0770447806322306
568,6.375,0.0777393092733045
569,6.382,0.0694289148439032
570,6.390,0.0708898199165069
571,6.397,0.0838822953572856
572,6.405,0.0771166284226865
573,6.412,0.0965634303727553
574,6.420,0.10407751179127
575,6.427,0.0891211967446964
576,6.435,0.109442146811979
577,6.443,0.283134180239163
578,6.450,0.617813162814577
579,6.458,0.435223978002601
580,6.465,0.307592365573532
581,6.473,0.23252339917884
582,6.480,0.172817885309971
583,6.488,0.140707910292046
584,6.495,0.148653078453297
585,6.503,0.111268278152733
586,6.510,0.110424066614876
587,6.518,0.117740566609637
588,6.525,0.0989643440371573
589,6.533,0.0960664831554352
590,6.541,0.100634805165257
591,6.548,0.116680811700413
592,6.556,0.131487443850203
593,6.563,0.409298900279757
594,6.571,0.715136982302991
595,6.578,0.520716861329274
596,6.586,0.39414500380943
597,6.593,0.355113691644252
598,6.601,0.224494408595391
599,6.608,0.210250584137505
600,6.616,0.242145015784061
601,6.623,0.182780778919858
602,6.631,0.155131354226072
603,6.638,0.127104728632392
604,6.646,0.109639728235733
605,6.654,0.115189970048452
606,6.661,0.0954318276730746
607,6.669,0.0992936464100802
608,6.676,0.109250552704096
609,6.684,0.091186820720304
610,6.691,0.110915026516325
611,6.699,0.103197376358185
612,6.706,0.0922765122088855
613,6.714,0.0909233788219657
614,6.721,0.0925579160548378
615,6.729,0.0928033960055622
616,6.736,0.0924800809485106
617,6.744,0.106173072346235
618,6.752,0.0858760715424373
619,6.759,0.0904144569729029
620,6.767,0.0680398575617554
621,6.774,0.082900375554388
622,6.782,0.0821280118069869
623,6.789,0.0731889492110963
624,6.797,0.0699498113247086
625,6.804,0.0622620977459253
626,6.812,0.0633637638662494
627,6.819,0.0634415989725766
628,6.827,0.077930903381187
629,6.834,0.0653036542085592
630,6.842,0.0670878743382145
631,6.849,0.0891930445351523
632,6.857,0.193408264591463
633,6.865,0.367130234598004
634,6.872,0.254125634842586
635,6.880,0.182008415172457
636,6.887,0.156490474928863
637,6.895,0.146216240893667
638,6.902,0.143438126329371
639,6.910,0.131253938531222
640,6.917,0.137462785089787
641,6.925,0.161753325579759
642,6.932,0.161477909049678
643,6.940,0.140683961028561
644,6.947,0.130912661526556
645,6.955,0.121141362024551
646,6.963,0.101604750336412
647,6.970,0.10159277570467
648,6.978,0.111843060476381
649,6.985,0.129074555554059
650,6.993,0.164178188507647
651,7.000,0.206029526448219
652,7.008,0.158130999477607
653,7.015,0.145904900468358
654,7.023,0.207280875465327
655,7.030,0.309460408125386
656,7.038,0.307592365573532
657,7.045,0.199072265405738
658,7.053,0.172398773198978
659,7.060,0.202179682342956
660,7.068,0.207801771946132
661,7.076,0.219758441741171
662,7.083,0.165417562893011
663,7.091,0.15715506699058
664,7.098,0.138929677478262
665,7.106,0.15449071142784
666,7.113,0.176009124669388
667,7.121,0.21839932103838
668,7.128,0.187157506821798
669,7.136,0.166165977376927
670,7.143,0.153844081313737
671,7.151,0.148293839501017
672,7.158,0.182283831702538
673,7.166,0.27057279154112
674,7.173,0.230745166365056
675,7.181,0.192480230631407
676,7.189,0.151203675014482
677,7.196,0.127008931578451
678,7.204,0.132026302278623
679,7.211,0.130828839104357
680,7.219,0.161238416414825
681,7.226,0.30117396295947
682,7.234,0.471309530759087
683,7.241,0.392061417886208
684,7.249,0.254778252272561
685,7.256,0.275997299720542
686,7.264,0.261166718307266
687,7.271,0.224829698284185
688,7.279,0.170848058388304
689,7.287,0.162316133271664
690,7.294,0.144587690976666
691,7.302,0.158621959379055
692,7.309,0.197078489220586
693,7.317,0.246479832474902
694,7.324,0.334655033311929
695,7.332,0.416339983744437
696,7.339,0.289971694964218
697,7.347,0.233367610716697
698,7.354,0.19686893316509
699,7.362,0.219309393050822
700,7.369,0.180595408626824
701,7.377,0.15534689759744
702,7.384,0.168339373038219
703,7.392,0.147228097275921
704,7.400,0.15331719751706
705,7.407,0.149060215932547
706,7.415,0.135349262587209
