#"+EI TIC Scan TCM-Blank2.d "
#Point,X(Minutes),Y(Counts)
0,2.095,0.117264317219179
1,2.102,0.109587768978905
2,2.110,0.106143407968767
3,2.117,0.101572493523269
4,2.125,0.103673363443265
5,2.132,0.0980748495803779
6,2.140,0.08702625288156
7,2.148,0.0748625205186865
8,2.155,0.0852564983293898
9,2.163,0.0841641982079427
10,2.170,0.0842517344546092
11,2.178,0.0834753260059152
12,2.185,0.0805904357896892
13,2.193,0.0713153995668098
14,2.200,0.0732868680786898
15,2.208,0.0671022419555141
16,2.215,0.0520726489952552
17,2.223,0.0701660105888411
18,2.230,0.0579337715981416
19,2.238,0.0590146539482843
20,2.246,0.0695113917007265
21,2.253,0.0657054679326184
22,2.261,0.0656065139146476
23,2.268,0.0564913264900287
24,2.276,0.0513990004883
25,2.283,0.0518519054167049
26,2.291,0.0437909588758519
27,2.298,0.0525750309326454
28,2.306,0.0606283656259622
29,2.313,0.05407456489728
30,2.321,0.0532753209059773
31,2.328,0.127852397142056
32,2.336,0.168625258469798
33,2.343,0.10195308590008
34,2.351,0.0763087715505676
35,2.359,0.052418988058153
36,2.366,0.0610850764781352
37,2.374,0.0522971984975735
38,2.381,0.0525826427801816
39,2.389,0.0586721208091546
40,2.396,0.308237960055308
41,2.404,0.441281637217063
42,2.411,0.11040223666528
43,2.419,0.050306700366853
44,2.426,0.0410773352291908
45,2.434,0.0520155601387335
46,2.441,0.0442971467370103
47,2.449,0.0514522834210535
48,2.457,0.0436158863825189
49,2.464,0.0515550433627925
50,2.472,0.0510602732729384
51,2.479,0.0514484774972854
52,2.487,0.0423675433865795
53,2.494,0.0458423517868622
54,2.502,0.0434712612793308
55,2.509,0.0482781429984514
56,2.517,0.0460022005851227
57,2.524,0.0509917666451125
58,2.532,0.0552582071891616
59,2.539,0.0494846208329416
60,2.547,0.0382913990309357
61,2.554,0.0432048466155633
62,2.562,0.0587101800468357
63,2.570,0.143772576264052
64,2.577,0.272055042791904
65,2.585,0.0964687497502363
66,2.592,0.0543866506462649
67,2.600,0.0504855787839541
68,2.607,0.0503942366135195
69,2.615,0.0622534950749443
70,2.622,0.0506910986674319
71,2.630,0.0545084402068443
72,2.637,0.0385692314660076
73,2.645,0.0393151925245568
74,2.652,0.0352542718639854
75,2.660,0.046295256715267
76,2.668,0.0366967169720984
77,2.675,0.0388280342822389
78,2.683,0.0402324201526708
79,2.690,0.0360611277028243
80,2.698,0.0362019468822443
81,2.705,0.0404379400361487
82,2.713,0.039357057686006
83,2.720,0.0532524853633687
84,2.728,0.0685561048349314
85,2.735,0.0919435063899557
86,2.743,0.0600270296706011
87,2.750,0.0507748289903303
88,2.758,0.0381315502326752
89,2.765,0.0744020037427454
90,2.773,0.0884648920659049
91,2.781,0.0520155601387335
92,2.788,0.0549270918213362
93,2.796,0.0572677349387227
94,2.803,0.0705466029656519
95,2.811,0.0678976800230487
96,2.818,0.04168247710832
97,2.826,0.0514180301071406
98,2.833,0.0521411556230811
99,2.841,0.0586949563517633
100,2.848,0.0470830829352654
101,2.856,0.0733325391639071
102,2.863,0.0530089062422097
103,2.871,0.0384055767439789
104,2.879,0.0514294478784449
105,2.886,0.0746493887876725
106,2.894,0.0753991557699898
107,2.901,0.0488756730300443
108,2.909,0.0654047999549379
109,2.916,0.0568110240865497
110,2.924,0.0549499273639449
111,2.931,0.0560041682477108
112,2.939,0.045731979997587
113,2.946,0.0458537695581665
114,2.954,0.214954768498978
115,2.961,5.34820586850609
116,2.969,30.0046013618356
117,2.976,68.0852131107984
118,2.984,100
119,2.992,38.7207338734447
120,2.999,0.221721700958674
121,3.007,0.120773378933375
122,3.014,0.114893226711648
123,3.022,0.106409822632535
124,3.029,0.0712430870152157
125,3.037,0.0813516205433108
126,3.044,0.0917646279728546
127,3.052,0.0758406429270903
128,3.059,0.0723125515940541
129,3.067,0.0802479026505595
130,3.074,0.0640156377795784
131,3.082,0.0442705052706335
132,3.089,0.065408605878706
133,3.097,0.0551326117048141
134,3.105,0.0435435738309249
135,3.112,0.047490316778453
136,3.120,0.0509346777885908
137,3.127,0.0896599521290908
138,3.135,0.0782802400624476
139,3.142,0.0411077826193357
140,3.150,0.0385197544570222
141,3.157,0.0637796705059557
142,3.165,0.07280351576014
143,3.172,0.0499223020662741
144,3.180,0.0543447854848157
145,3.187,0.0484532154917843
146,3.195,0.0313493940779065
147,3.203,0.0451801210512114
148,3.210,0.0410544996865822
149,3.218,0.0446701272662849
150,3.225,0.0389498238428184
151,3.233,0.0402552556952795
152,3.240,0.033480711388047
153,3.248,0.0460745131367168
154,3.255,0.110535443997164
155,3.263,0.260663912953956
156,3.270,0.171807010739936
157,3.278,0.0507443816001854
158,3.285,0.0335035469306557
159,3.293,0.0317604338448622
160,3.300,0.0297623238666054
161,3.308,0.0445863969433865
162,3.316,0.0565636390416227
163,3.323,0.031752821997326
164,3.331,0.0275054110721173
165,3.338,0.031612002817906
166,3.346,0.016019133139967
167,3.353,0.0196918495761914
168,3.361,0.0133093154170741
169,3.368,0.0223864436040119
170,3.376,0.029256136005447
171,3.383,0.0139372928388119
172,3.391,0.0190334247643087
173,3.398,0.0277337664982038
174,3.406,0.0194254349124238
175,3.414,0.0226871115816924
176,3.421,0.0143140792918546
177,3.429,0.0250049191564703
178,3.436,0.0167308408846032
179,3.444,0.0282780135970433
180,3.451,0.0193911815985108
181,3.459,0.0217318247158973
182,3.466,0.0158440606466341
183,3.474,0.012989617820553
184,3.481,0.0409707693636838
185,3.489,0.106124378349927
186,3.496,0.0745009577607162
187,3.504,0.0308470121405162
188,3.511,0.0260667718877724
189,3.519,0.0321524439929773
190,3.527,0.0208298207828557
191,3.534,0.0142265430451881
192,3.542,0.0244226128199497
193,3.549,0.0210924295228551
194,3.557,0.0267708677848724
195,3.564,0.0169706140819941
196,3.572,0.0130467066770746
197,3.579,0.0183559703335854
198,3.587,0.0185805198359038
199,3.594,0.0218345846576362
200,3.602,0.0144244510811297
201,3.609,0.0149420567135924
202,3.617,0.00219221209043027
203,3.625,0.0109001656718616
204,3.632,0.0124758181118584
205,3.640,0.0180553023559049
206,3.647,0.0122817159996849
207,3.655,0.0164453966019951
208,3.662,0.0215605581463324
209,3.670,0.020312215150393
210,3.677,0.0130581244483789
211,3.685,0.0182417926205422
212,3.692,0.0192617801903951
213,3.700,0.0140895297895362
214,3.707,0.0294426262700843
215,3.715,0.0257318505961789
216,3.722,0.0157108533147503
217,3.730,0.0205862416616968
218,3.738,0.02070041937474
219,3.745,0.0246433563985
220,3.753,0.0188887996611205
221,3.760,0.00766513046896973
222,3.768,0.0107060635596881
223,3.775,0.0141390067985216
224,3.783,0.0089172793886773
225,3.790,0.0171989695080805
226,3.798,0.00836161451853352
227,3.805,0.0197603562040173
228,3.813,0.0190372306880768
229,3.820,0.0164225610593865
230,3.828,0.0139487106101162
231,3.835,0.0160648042251843
232,3.843,0.018272240010687
233,3.851,0.0132864798744654
234,3.858,0.0128335749460605
235,3.866,0.0133854338924362
236,3.873,0.0309231306158784
237,3.881,0.0502952825955487
238,3.888,0.0246205208558914
239,3.896,0.0124149233315687
240,3.903,0.012780292013307
241,3.911,0.00834639082346108
242,3.918,0.0099943558150519
243,3.926,0.0246814156361811
244,3.933,0.0237451583892265
245,3.941,0.0212789197874924
246,3.949,0.0189915596028595
247,3.956,0.0143407207582314
248,3.964,0.0482248600656979
249,3.971,0.0917950753629995
250,3.979,0.047562629330047
251,3.986,0.0191590202486562
252,3.994,0.018272240010687
253,4.001,0.0280991351799422
254,4.009,0.0352656896352897
255,4.016,0.0255643899503822
256,4.024,0.020205649284886
257,4.031,0.00992965511099406
258,4.039,0.0117336629770773
259,4.046,0.0355511339178979
260,4.054,0.0133511805785232
261,4.062,0.0206547482895227
262,4.069,0.0217851076486508
263,4.077,0.0195510303967714
264,4.084,0.0450849729570087
265,4.092,0.0925600660403892
266,4.099,0.109104416660355
267,4.107,0.0496673051738108
268,4.114,0.0225386805547362
269,4.122,0.014009605390406
270,4.129,0.0219449564469114
271,4.137,0.0231171809674887
272,4.144,0.0313493940779065
273,4.152,0.00945391463998054
274,4.160,0.0211038472941595
275,4.167,0.0242399284790806
276,4.175,0.0289288265613897
277,4.182,0.0234749378016908
278,4.190,0.0191628261724243
279,4.197,0.0186147731498168
280,4.205,0.016159952319387
281,4.212,0.0122893278472211
282,4.220,0.0228241248373443
283,4.227,0.0176138151988043
284,4.235,0.00465845069216433
285,4.242,0.00256519261970487
286,4.250,0.00659947181389946
287,4.257,0.01591256727446
288,4.265,0.00688491609650757
289,4.273,0.00914563481476379
290,4.280,0.0142303489689562
291,4.288,0.0190905136208303
292,4.295,0.019962070163727
293,4.303,0.00877265428548919
294,4.310,0.00790490366636054
295,4.318,0.0215986173840135
296,4.325,0.0163578603553287
297,4.333,0.00796199252288217
298,4.340,0.00355092687564487
299,4.348,0.0103178593353411
300,4.355,0.0155548104402578
301,4.363,0.0038934600147746
302,4.371,0.00966324044722649
303,4.378,0.00435017086694757
304,4.386,0.00471553954868595
305,4.393,0.00991062549215352
306,4.401,0.0079315451327373
307,4.408,0.0216557062405351
308,4.416,0.111136779952525
309,4.423,0.130939001317991
310,4.431,0.0485940346712043
311,4.438,0.0260020711837146
312,4.446,0.0216899595544481
313,4.453,0.0128449927173649
314,4.461,0.0060095536298427
315,4.468,0.0124187292553368
316,4.476,0.0165062913822849
317,4.484,0.0163198011176476
318,4.491,0.010454872590993
319,4.499,0.0164492025257632
320,4.506,0.0205672120428562
321,4.514,0.00951100349650217
322,4.521,0.00931690138432865
323,4.529,0.0106946457883838
324,4.536,0.0120381368785259
325,4.544,0.00609708987650919
326,4.551,0.0107745701875141
327,4.559,0.00800385768433135
328,4.566,0.00968227006606703
329,4.574,0.0170315088622838
330,4.582,0.020312215150393
331,4.589,0.0161104753104016
332,4.597,0.0125861899011335
333,4.604,0.0204225869396681
334,4.612,0.0161028634628654
335,4.619,0.0239164249587914
336,4.627,0.0107631524162097
337,4.634,0.0268545981077708
338,4.642,0.0237565761605308
339,4.649,0.0138269210495368
340,4.657,0.0199544583161908
341,4.664,0.0145157932515643
342,4.672,0.0177470225306881
343,4.679,0.0142493785877968
344,4.687,0.0241752277750227
345,4.695,0.0110676263176584
346,4.702,0.00749005797563676
347,4.710,0.0191552143248881
348,4.717,0.00941204947853135
349,4.725,0.0162398767185173
350,4.732,0.0170885977188054
351,4.740,0.00725028477824595
352,4.747,0.0146984775924335
353,4.755,0.014751760525187
354,4.762,0.0050200134501346
355,4.770,0.00737588026259352
356,4.777,0.0257128209773384
357,4.785,0.01520847137736
358,4.792,0.011794557757367
359,4.800,0.0143863918434487
360,4.808,0.0174121012390946
361,4.815,0.0177203810643114
362,4.823,0.0216176470028541
363,4.830,0.0334502639979022
364,4.838,0.0324873652845708
365,4.845,0.0171342688040227
366,4.853,0.00908093411070595
367,4.860,0.00907712818693784
368,4.868,0.019079095849526
369,4.875,0.0220248808460416
370,4.883,0.0217774958011146
371,4.890,0.0228697959225616
372,4.898,0.0134539405202622
373,4.906,0.0287918133057378
374,4.913,0.0194064052935832
375,4.921,0.0180705260509773
376,4.928,0.0175795618848914
377,4.936,0.0172408346695297
378,4.943,0.0243008232593703
379,4.951,0.0153416787092438
380,4.958,0.00861280548722865
381,4.966,0.0134387168251897
382,4.973,0.0156880177721416
383,4.981,0.0143140792918546
384,4.988,0.0178383647011227
385,4.996,0.0254426003898027
386,5.003,0.0252675278964697
387,5.011,0.0396577256636865
388,5.019,0.0504703550888816
389,5.026,0.0212218309309708
390,5.034,0.0136214011660589
391,5.041,0.0199810997825676
392,5.049,0.0195434185492351
393,5.056,0.0333589218274676
394,5.064,0.0175338907996741
395,5.071,0.018904023356193
396,5.079,0.0175643381898189
397,5.086,0.0254996892463243
398,5.094,0.0258688638518308
399,5.101,0.0243845535822687
400,5.109,0.0144358688524341
401,5.117,0.0158516724941703
402,5.124,0.0116309030353384
403,5.132,0.03267004962544
404,5.139,0.0207080312222762
405,5.147,0.0128944697263503
406,5.154,0.021438768585753
407,5.162,0.0115738141788168
408,5.169,0.00420173983999135
409,5.177,0.00898198009273514
410,5.184,0.00806094654085298
411,5.192,0.015174218063447
412,5.199,0.0117831399860627
413,5.207,0.0178003054634416
414,5.214,0.0203084092266249
415,5.222,0.00812564724491081
416,5.230,0.0155624222877941
417,5.237,0.0133207331883784
418,5.245,0.0098078655504146
419,5.252,0.0127232031567854
420,5.260,0.0120305250309897
421,5.267,0.0134996116054795
422,5.275,0.0118744821564973
423,5.282,0.00909996372954649
424,5.290,0.00921414144258973
425,5.297,0.0235434444295168
426,5.305,0.00817131833012811
427,5.312,0.00941585540229946
428,5.320,0.01422273712142
429,5.328,0.0105119614475146
430,5.335,0.0130733481434514
431,5.343,0.0172218050506892
432,5.350,0.00823982495795406
433,5.358,0.0152998135477946
434,5.365,0.0160115212924308
435,5.373,0.0157603303237357
436,5.380,0.0210467584376378
437,5.388,0.0122550745333081
438,5.395,0.0165519624675022
439,5.403,0.0139829639240292
440,5.410,0.00465083884462811
441,5.418,0.0217166010208249
442,5.425,0.00846818038404054
443,5.433,0.0130999896098281
444,5.441,0.00509232600172865
445,5.448,0.00799624583679514
446,5.456,0.0229459143979238
447,5.463,0.0168297949025741
448,5.471,0.015665182229533
449,5.478,0.0174121012390946
450,5.486,0.0211457124556087
451,5.493,0.0155129452788087
452,5.501,0.0111703862593973
453,5.508,0.0154901097362
454,5.516,0.0206166890518416
455,5.523,0.000882974314201081
456,5.531,0.0112769521249043
457,5.538,0.0153074253953308
458,5.546,0.0135414767669287
459,5.554,0.0110524026225859
460,5.561,0.0118478406901205
461,5.569,0.01084307681534
462,5.576,0.0107441227973692
463,5.584,0.0161256990054741
464,5.591,0.00995629657737081
465,5.599,0.0131532725425816
466,5.606,0.0102265171649065
467,5.614,0.013552894538233
468,5.621,0.0208336267066238
469,5.629,0.0185386546744546
470,5.636,0.011090461860267
471,5.644,0.0242589580979211
472,5.652,0.021613841079086
473,5.659,0.0219145090567665
474,5.667,0.0276462302515373
475,5.674,0.0198250569080751
476,5.682,0.0155471985927216
477,5.689,0.0167765119698205
478,5.697,0.0141466186460578
479,5.704,0.0104320370483843
480,5.712,0.0096670463709946
481,5.719,0.0118059755286714
482,5.727,0.0122588804570762
483,5.734,0.00918369405244487
484,5.742,0.0124910418069308
485,5.749,0.0186109672260487
486,5.757,0.00930167768925622
487,5.765,0.0121599264391054
488,5.772,0.0218574202002449
489,5.780,0.028338908377333
490,5.787,0.0219792097608243
491,5.795,0.0204568402535811
492,5.802,0.0183179110959043
493,5.810,0.0168602422927189
494,5.817,0.0465997306167157
495,5.825,0.0319393122619633
496,5.832,0.015033398884027
497,5.840,0.0214920515185065
498,5.847,0.0114976957034546
499,5.855,0.0112807580486724
500,5.863,0.0162322648709811
501,5.870,0.00894392085505406
502,5.878,0.0177964995396735
503,5.885,0.020947804419667
504,5.893,0.024993501385166
505,5.900,0.025275139744006
506,5.908,0.0211685479982173
507,5.915,0.0138269210495368
508,5.923,0.0103026356402687
509,5.930,0.00914563481476379
510,5.938,0.0155167512025768
511,5.945,0.0116689622730195
512,5.953,0.0210581762089422
513,5.960,0.0107974057301227
514,5.968,0.0196347607196697
515,5.976,0.0171114332614141
516,5.983,0.00774886079186811
517,5.991,0.0114558305420054
518,5.998,0.019962070163727
519,6.006,0.017849782472427
520,6.013,0.00358137426578973
521,6.021,0.00562896125303189
522,6.028,0.0189192470512654
523,6.036,0.0140781120182319
524,6.043,0.0182988814770638
525,6.051,0.0206928075272038
526,6.058,0.00729976178723135
527,6.066,0.00644723486317514
528,6.074,0.015806001408953
529,6.081,0.00939682578345892
530,6.089,0.00792393328520108
531,6.096,0.0157222710860546
532,6.104,0.0133511805785232
533,6.111,0.0150257870364908
534,6.119,0.0157907777138805
535,6.126,0.0219792097608243
536,6.134,0.0182265689254697
537,6.141,0.0197261028901043
538,6.149,0.0185614902170632
539,6.156,0.0150562344266357
540,6.164,0.00903906894925676
541,6.171,0.0158250310277935
542,6.179,0.0102112934698341
543,6.187,0.0114748601608459
544,6.194,0.0168906896828638
545,6.202,0.019748938432713
546,6.209,0.0143178852156227
547,6.217,0.00848721000288108
548,6.224,0.0130999896098281
549,6.232,0.0116309030353384
550,6.239,0.0205405705764795
551,6.247,0.0105804680753405
552,6.254,0.0181085852886584
553,6.262,0.0225767397924173
554,6.269,0.0134767760628708
555,6.277,0.01323700286548
556,6.284,0.0153759320231568
557,6.292,0.0106641983982389
558,6.300,0.0202094552086541
559,6.307,0.0160457746063438
560,6.315,0.0118097814524395
561,6.322,0.015840254722866
562,6.330,0.0183902236474984
563,6.337,0.0140210231617103
564,6.345,0.00839206190867838
565,6.352,0.01999632347764
566,6.360,0.012357834475047
567,6.367,0.00709043597998541
568,6.375,0.00564799087187243
569,6.382,0.0167460645796757
570,6.390,0.00521030963854
571,6.398,0.00631402753129135
572,6.405,0.0123311930086703
573,6.413,0.0209896695811162
574,6.420,0.0270487002199443
575,6.428,0.00710185375128973
576,6.435,0.00768796601157838
577,6.443,0.0160571923776481
578,6.450,0.00394674294752811
579,6.458,0.00833116712838865
580,6.465,0.00901623340664811
581,6.473,0.0172979235260514
582,6.480,0.010736510949833
583,6.488,0.00870414765766325
584,6.495,0.0123958937127281
585,6.503,0.0110980737078032
586,6.511,0.0162589063373578
587,6.518,0.0154444386509827
588,6.526,0.0131761080851903
589,6.533,0.016650916485473
590,6.541,0.0246699978648768
591,6.548,0.0327004970155849
592,6.556,0.022458756155606
593,6.563,0.0278517501350151
594,6.571,0.0268393744126984
595,6.578,0.0117450807483816
596,6.586,0.0203198269979292
597,6.593,0.0239506782727043
598,6.601,0.0178726180150357
599,6.609,0.019539612625467
600,6.616,0.021651900316767
601,6.624,0.029077257588346
602,6.631,0.0217089891732887
603,6.639,0.0245748497706741
604,6.646,0.011512919398527
605,6.654,0.0160001035211265
606,6.661,0.0236423984474876
607,6.669,0.0238821716448784
608,6.676,0.0183445525622811
609,6.684,0.0147822079153319
610,6.691,0.0187670101005411
611,6.699,0.00886399645592379
612,6.706,0.0140210231617103
613,6.714,0.00476501655767135
614,6.722,0.00723125515940541
615,6.729,0.0102569645550514
616,6.737,0.0173702360776454
617,6.744,0.0163654722028649
618,6.752,0.0155700341353303
619,6.759,0.0218345846576362
620,6.767,0.0130238711344659
621,6.774,0.00777550225824487
622,6.782,0.00771460747795514
623,6.789,0.00787445627621568
624,6.797,0.0143597503770719
625,6.804,0.0116385148828746
626,6.812,0.00867750619128649
627,6.820,0.0200153530964805
628,6.827,0.0137431907266384
629,6.835,0.0224435324605335
630,6.842,0.00995249065360271
631,6.850,0.0101884579272254
632,6.857,0.0144472866237384
633,6.865,0.0221733118729978
634,6.872,0.00887922015099622
635,6.880,0.0101922638509935
636,6.887,0.0205824357379287
637,6.895,0.0152389187675049
638,6.902,0.0116994096631643
639,6.910,0.00687730424897135
640,6.917,0.0232960593845897
641,6.925,0.00766893639273784
642,6.933,0.00983070109302325
643,6.940,0.014751760525187
644,6.948,0.0160457746063438
645,6.955,0.0177470225306881
646,6.963,0.0128297690222924
647,6.970,0.0155357808214173
648,6.978,0
649,6.985,0.0141580364173622
650,6.993,0.0173359827637324
651,7.000,0.0127917097846114
652,7.008,0.0122436567620038
653,7.015,0.0187746219480773
654,7.023,0.0236309806761833
655,7.031,0.0448642293784584
656,7.038,0.0303674657457346
657,7.046,0.0291533760637081
658,7.053,0.0184206710376432
659,7.061,0.0134272990538854
660,7.068,0.0233645660124157
661,7.076,0.0233797897074881
662,7.083,0.0106109154654854
663,7.091,0.01717993988924
664,7.098,0.0265539301300903
665,7.106,0.0183635821811216
666,7.113,0.0115700082550487
667,7.121,0.0218688379715492
668,7.128,0.0216937654782162
669,7.136,0.0253588700669043
670,7.144,0.0151209351306935
671,7.151,0.0151628002921427
672,7.159,0.0264930353498006
673,7.166,0.0240229908242984
674,7.174,0.0270487002199443
675,7.181,0.0305996270955892
676,7.189,0.0262228147622649
677,7.196,0.0306414922570384
678,7.204,0.0281942832741449
679,7.211,0.0384284122865876
680,7.219,0.0303027650416768
681,7.226,0.0366282103442724
682,7.234,0.0491877587790292
683,7.241,0.0575531792213308
684,7.249,0.0461734671546876
685,7.257,0.0450735551857043
686,7.264,0.0326814673967443
687,7.272,0.0328375102712368
688,7.279,0.031859387862833
689,7.287,0.0196385666434378
690,7.294,0.030344630203126
691,7.302,0.0229344966266195
692,7.309,0.0219525682944476
693,7.317,0.0216747358593757
