#"+EI TIC Scan TCM-PA.d "
#Point,X(Minutes),Y(Counts)
0,2.095,0.123237699251868
1,2.102,0.106044521221312
2,2.110,0.109700802428002
3,2.117,0.0960031446491623
4,2.125,0.106963744117695
5,2.133,0.0965060378929235
6,2.140,0.0764480172032359
7,2.148,0.0719219780093853
8,2.155,0.085368189166344
9,2.163,0.0916502326375902
10,2.170,0.0742633170459128
11,2.178,0.0786986705728556
12,2.185,0.0595145299460973
13,2.193,0.0673382297547752
14,2.200,0.0691272106383191
15,2.208,0.0580305826694249
16,2.215,0.061348853663095
17,2.223,0.0646094155960056
18,2.230,0.0719343442366909
19,2.238,0.0544567429781058
20,2.246,0.0633439383350656
21,2.253,0.0690365249714114
22,2.261,0.0667528949956434
23,2.268,0.0682574526511584
24,2.276,0.0409899214423044
25,2.283,0.0501821504061358
26,2.291,0.0530016502318132
27,2.298,0.0568599131511612
28,2.306,0.0514929705005297
29,2.313,0.0461383940772037
30,2.321,0.0452645140142744
31,2.328,0.0555944358902212
32,2.336,0.153048551209908
33,2.343,0.100714677252597
34,2.351,0.0750712438965455
35,2.359,0.0587684342319926
36,2.366,0.0627503594243966
37,2.374,0.0577667698202388
38,2.381,0.0475893647477277
39,2.389,0.0570041858030599
40,2.396,0.155983469157104
41,2.404,0.353768908682914
42,2.411,0.153155725179889
43,2.419,0.0423460843701522
44,2.426,0.046171370683352
45,2.434,0.0429396632808211
46,2.441,0.0393988001956502
47,2.449,0.0316616639781115
48,2.457,0.0293574236235008
49,2.464,0.053941483507039
50,2.472,0.0408497708661743
51,2.479,0.0464928925932976
52,2.487,0.0293120807900469
53,2.494,0.0354209970790147
54,2.502,0.0270408170415846
55,2.509,0.0336814811046932
56,2.517,0.0458993136826287
57,2.524,0.0406436670777475
58,2.532,0.0459240461372399
59,2.539,0.0506685553468228
60,2.547,0.0290606341681664
61,2.554,0.032205777979558
62,2.562,0.0450254336196994
63,2.570,0.0793870572262008
64,2.577,0.174392659539378
65,2.585,0.119082646877185
66,2.592,0.0523668505634589
67,2.600,0.0468803677155398
68,2.607,0.0511261057571301
69,2.615,0.0515712899401318
70,2.622,0.0519670092139111
71,2.630,0.0311093058251279
72,2.637,0.0277498140737725
73,2.645,0.0436280499341663
74,2.652,0.0244933742166304
75,2.660,0.0404829061227747
76,2.668,0.0387640005272959
77,2.675,0.0157380852842637
78,2.683,0.0312329680981839
79,2.690,0.0271397468600294
80,2.698,0.0369337988860667
81,2.705,0.0437599563587594
82,2.713,0.0374202038267538
83,2.720,0.0450996309835331
84,2.728,0.0479479853395902
85,2.735,0.0649845244909422
86,2.743,0.0521937233811805
87,2.750,0.0500337556784685
88,2.758,0.0380343931162654
89,2.765,0.0482612630979988
90,2.773,0.0781751669502517
91,2.781,0.0468515131851601
92,2.788,0.0362330460054159
93,2.796,0.0616085444365127
94,2.803,0.0495968156470039
95,2.811,0.0650463556274702
96,2.818,0.0401737504401346
97,2.826,0.0322305104341692
98,2.833,0.0483931695225919
99,2.841,0.0379643178282003
100,2.848,0.0452810023173486
101,2.856,0.0567238846507996
102,2.863,0.0610438200562235
103,2.871,0.0354127529274776
104,2.879,0.0318347911603899
105,2.886,0.0617610612399484
106,2.894,0.0603430671755726
107,2.901,0.0516990742889564
108,2.909,0.0626926503636372
109,2.916,0.0541146106893174
110,2.924,0.0550997867979971
111,2.931,0.0467072405332614
112,2.939,0.0391143769676213
113,2.946,0.0441226990263904
114,2.954,0.102371751711548
115,2.961,3.00104840875097
116,2.969,25.2704885508933
117,2.976,70.1454622829655
118,2.984,100
119,2.992,6.85741105116972
120,2.999,0.136411853408103
121,3.007,0.0750300231388601
122,3.014,0.0821282376122761
123,3.022,0.0709697785068539
124,3.029,0.048100502143026
125,3.037,0.0653349009312676
126,3.044,0.0900508672393989
127,3.052,0.0554419190867854
128,3.059,0.0456849657426649
129,3.067,0.070685355278825
130,3.074,0.0448852830435693
131,3.082,0.0365339575365189
132,3.090,0.0336402603470079
133,3.097,0.0447739869978189
134,3.105,0.0375850868574951
135,3.112,0.0236236162294697
136,3.120,0.0376263076151805
137,3.127,0.0754257424126394
138,3.135,0.0623628843021544
139,3.142,0.0396708571963735
140,3.150,0.0278940867256712
141,3.157,0.0333393488159049
142,3.165,0.0474162375654493
143,3.172,0.0386980473149994
144,3.180,0.0335536967558687
145,3.187,0.0454500074238585
146,3.195,0.0262287681151833
147,3.203,0.024505740443936
148,3.210,0.0283145384540617
149,3.218,0.030523971065996
150,3.225,0.036480370551528
151,3.233,0.00679318086654442
152,3.240,0.0253961088099394
153,3.248,0.0316905185084912
154,3.255,0.0386980473149994
155,3.263,0.0612375576173446
156,3.270,0.029674823457678
157,3.278,0.027090281950807
158,3.285,0.0375191336451986
159,3.293,0.0198395506739553
160,3.300,0.0302601582168098
161,3.308,0.0399346700455597
162,3.316,0.0465506016540571
163,3.323,0.0313854849016197
164,3.331,0.0270573053446587
165,3.338,0.0199549687954742
166,3.346,0.0303425997321805
167,3.353,0.0184957539734131
168,3.361,0.0181412554573192
169,3.368,0.0111172383477368
170,3.376,0.0161667811641913
171,3.383,0.0132813281262173
172,3.391,0.0265173134189807
173,3.398,0.0277333257706983
174,3.406,0.0175476765466502
175,3.414,0.02216027933164
176,3.421,0.0165295238318223
177,3.429,0.0155525918746797
178,3.436,0.0266327315404997
179,3.444,0.022452946711206
180,3.451,0.0184916318976446
181,3.459,0.0200951193716044
182,3.466,0.028541252621331
183,3.474,0.0249550467027063
184,3.481,0.0307506852332654
185,3.489,0.0824868582041385
186,3.496,0.0825322010375924
187,3.504,0.0303632101110232
188,3.511,0.0194561976274816
189,3.519,0.0133885020961992
190,3.527,0.0253672542795597
191,3.534,0.0196787897189824
192,3.542,0.019142919869073
193,3.549,0.0174363805008998
194,3.557,0.0191016991113876
195,3.564,0.0210679292529785
196,3.572,0.0190604783537023
197,3.579,0.0289823147285642
198,3.587,0.0260680071602105
199,3.594,0.0174652350312795
200,3.602,0
201,3.609,0.0292791041838987
202,3.617,0.0165542562864335
203,3.625,0.0160678513457464
204,3.632,0.014390166507953
205,3.640,0.0286525486670815
206,3.647,0.000375108894936615
207,3.655,0.0126053077001777
208,3.662,0.0142005510226004
209,3.670,0.0193119249755829
210,3.677,0.00844613324972665
211,3.685,0.0071641676857125
212,3.692,0.0213441083294703
213,3.700,0.0165625004379706
214,3.707,0.0205279373273005
215,3.715,0.0221685234831771
216,3.722,0.0340071250904074
217,3.730,0.455720208666071
218,3.738,1.48943788159601
219,3.745,2.93273324703905
220,3.753,4.37894292005045
221,3.760,5.48215879043787
222,3.768,2.07364319196729
223,3.775,0.448123223024662
224,3.783,0.336641683864654
225,3.790,0.262246460394148
226,3.798,0.21884924670302
227,3.805,0.203412072949859
228,3.813,0.180171809766863
229,3.820,0.168531067796522
230,3.828,0.134103490977724
231,3.836,0.127137182928901
232,3.843,0.116102386096535
233,3.851,0.110277893035596
234,3.858,0.0983568499129954
235,3.866,0.101122762753682
236,3.873,0.108958828789665
237,3.881,0.113732192529628
238,3.888,0.0968275598028692
239,3.896,0.0879115099155296
240,3.903,0.0734801226498913
241,3.911,0.0776351750245738
242,3.918,0.0653307788554991
243,3.926,0.0940781352652568
244,3.933,0.0997624777500655
245,3.941,0.0665385470556796
246,3.949,0.0728865437392223
247,3.956,0.0763738198394023
248,3.964,0.0869675545645353
249,3.971,0.14339464976
250,3.979,0.106786494859648
251,3.986,0.066039775887687
252,3.994,0.0535416421574912
253,4.001,0.053215998171777
254,4.009,0.0828660891748437
255,4.016,0.0458498487734063
256,4.024,0.0579069203963689
257,4.031,0.0475769985204221
258,4.039,0.042028684535975
259,4.046,0.0513981627578534
260,4.054,0.0535416421574912
261,4.062,0.042869587992756
262,4.069,0.0413279316553242
263,4.077,0.0548978050853389
264,4.084,0.056410606892391
265,4.092,0.0790820236193293
266,4.099,0.0776928840853332
267,4.107,0.0568228144692444
268,4.114,0.0340854445300096
269,4.122,0.0421317364301884
270,4.129,0.0417772379140945
271,4.137,0.0483725591437492
272,4.144,0.0361588486415823
273,4.152,0.0387227797696106
274,4.160,0.0521071597900412
275,4.167,0.0581377566394068
276,4.175,0.0510519083932965
277,4.182,0.0561591602705104
278,4.190,0.0408332825631001
279,4.197,0.0263606745397764
280,4.205,0.0346501689102988
281,4.212,0.0346872675922156
282,4.220,0.0381539333135529
283,4.227,0.038834075815361
284,4.235,0.0214554043752207
285,4.242,0.0341019328330837
286,4.250,0.0321769234491782
287,4.257,0.0296995559122892
288,4.265,0.0370162404014374
289,4.273,0.0292914704112043
290,4.280,0.0233103384710611
291,4.288,0.0242501717462869
292,4.295,0.042560432310116
293,4.303,0.0403880983800984
294,4.310,0.0253425218249485
295,4.318,0.0338422420596661
296,4.325,0.0280136269229587
297,4.333,0.0330013386028851
298,4.340,0.018602927943395
299,4.348,0.0223292844381499
300,4.355,0.029382156078112
301,4.363,0.025833048841404
302,4.371,0.0411877810791941
303,4.378,0.0254496957949304
304,4.386,0.0275272219822716
305,4.393,0.0248890934904097
306,4.401,0.028471177333266
307,4.408,0.0572556324249405
308,4.416,0.111065209507386
309,4.423,0.184487623096518
310,4.431,0.0699804803224057
311,4.438,0.0349304700625591
312,4.446,0.0380343931162654
313,4.453,0.0400129894851618
314,4.461,0.0200003116289281
315,4.468,0.0272798974361596
316,4.476,0.0300952751860684
317,4.484,0.0296088702453814
318,4.491,0.0353426776394125
319,4.499,0.0333146163612937
320,4.506,0.032514933662198
321,4.514,0.0283433929844414
322,4.521,0.0292708600323616
323,4.529,0.0433889695395913
324,4.536,0.025709386568348
325,4.544,0.0420080741571324
326,4.551,0.029497574199631
327,4.559,0.0346171923041505
328,4.566,0.0373006636294663
329,4.574,0.037391349296374
330,4.582,0.0409610669119247
331,4.589,0.0405200048046915
332,4.597,0.042807756856228
333,4.604,0.051233279727112
334,4.612,0.0554336749352484
335,4.619,0.0408662591692484
336,4.627,0.0430715697054142
337,4.634,0.0375026453421245
338,4.642,0.0406848878354329
339,4.649,0.0350005453506242
340,4.657,0.0353426776394125
341,4.664,0.0356188567159043
342,4.672,0.0360393084442948
343,4.679,0.037506767417893
344,4.687,0.0427376815681629
345,4.695,0.028957582273953
346,4.702,0.0387392680726847
347,4.710,0.0291224653046944
348,4.717,0.036542201688056
349,4.725,0.0384342344658132
350,4.732,0.0422183000213276
351,4.740,0.0327334036779304
352,4.747,0.022576608984262
353,4.755,0.0297407766699745
354,4.762,0.0396832234236791
355,4.770,0.0449636024831714
356,4.777,0.0463197654110192
357,4.785,0.0519628871381426
358,4.793,0.0405983242442937
359,4.800,0.0477295153238579
360,4.808,0.0331744657851635
361,4.815,0.0454170308177102
362,4.823,0.0462620563502597
363,4.830,0.0534839330967317
364,4.838,0.0723630401166185
365,4.845,0.0755040618522416
366,4.853,0.0512868667121029
367,4.860,0.0357878618224142
368,4.868,0.0375603544028839
369,4.875,0.0481746995068596
370,4.883,0.0279724061652733
371,4.890,0.206899349050039
372,4.898,4.65822179752018
373,4.906,12.1128185756563
374,4.913,4.01463798570316
375,4.921,0.790102995009568
376,4.928,0.480238315337312
377,4.936,0.371765891488334
378,4.943,0.281405868566295
379,4.951,0.235197399201026
380,4.958,0.199001451877527
381,4.966,0.173729005340644
382,4.973,0.147970153863073
383,4.981,0.137937021442461
384,4.988,0.145311414992369
385,4.996,0.122128860870132
386,5.003,0.125719188864526
387,5.011,0.123633418525647
388,5.019,0.11527384886706
389,5.026,0.0958052850122727
390,5.034,0.092289154381713
391,5.041,0.0791314885285517
392,5.049,0.0903600229220389
393,5.056,0.0896345375867769
394,5.064,0.083925462647357
395,5.071,0.0874910581871391
396,5.079,0.0741520210001623
397,5.086,0.0635995070327147
398,5.094,0.0600916205536921
399,5.101,0.074898116714267
400,5.109,0.0584592785493525
401,5.117,0.069535296139404
402,5.124,0.0628039464093876
403,5.132,0.0669054117990791
404,5.139,0.0534839330967317
405,5.147,0.0453510776054136
406,5.154,0.0454953502573123
407,5.162,0.0498647505719586
408,5.169,0.0652524594158969
409,5.177,0.0515383133339835
410,5.184,0.0517031963647249
411,5.192,0.0447410103916706
412,5.199,0.0588508757473633
413,5.207,0.0537230134913067
414,5.214,0.0663530536460956
415,5.222,0.0508210721502586
416,5.230,0.0510312980144538
417,5.237,0.0868356481399422
418,5.245,0.114952326957114
419,5.252,0.0697166674732195
420,5.260,0.0493824677070401
421,5.267,0.0556439007994436
422,5.275,0.0498029194354306
423,5.282,0.0484302682045087
424,5.290,0.0427294374166259
425,5.297,0.0479974502488126
426,5.305,0.049728722071597
427,5.312,0.0367647937795568
428,5.320,0.0336979694077674
429,5.328,0.0403757321527928
430,5.335,0.0323418064799196
431,5.343,0.0336608707258506
432,5.350,0.0426799725074035
433,5.358,0.0278198893618375
434,5.365,0.0356600774735897
435,5.373,0.0375479881755783
436,5.380,0.0465052588206032
437,5.388,0.05050779439185
438,5.395,0.0380426372678024
439,5.403,0.0411960252307311
440,5.410,0.0494030780858828
441,5.418,0.0540733899316321
442,5.425,0.0588508757473633
443,5.433,0.0703514671415738
444,5.441,0.0424573804159026
445,5.448,0.0362206797781103
446,5.456,0.0473544064289213
447,5.463,0.0511961810451952
448,5.471,0.0503099347549603
449,5.478,0.0621980012714131
450,5.486,0.0668806793444679
451,5.493,0.0369008222799185
452,5.501,0.0497122337685229
453,5.508,0.0370574611591228
454,5.516,0.0384301123900447
455,5.523,0.0393369690591222
456,5.531,0.0383724033292852
457,5.539,0.0462043472895002
458,5.546,0.0322469987372433
459,5.554,0.0391844522556864
460,5.561,0.0391679639526123
461,5.569,0.0455942800757572
462,5.576,0.0347490987287436
463,5.584,0.0334959876951092
464,5.591,0.0493577352524289
465,5.599,0.0429479074323582
466,5.606,0.0465918224117424
467,5.614,0.0690035483652631
468,5.621,0.119445389544816
469,5.629,0.134185932493095
470,5.636,0.0994203454612772
471,5.644,0.0801991061526021
472,5.652,0.0746136934862382
473,5.659,0.0610932849654459
474,5.667,0.0639540055488086
475,5.674,0.0477047828692467
476,5.682,0.0458457266976377
477,5.689,0.0399882570305506
478,5.697,0.0542052963562252
479,5.704,0.0465093808963718
480,5.712,0.039798641545198
481,5.719,0.0641559872614668
482,5.727,0.0641312548068556
483,5.734,0.0444400988605676
484,5.742,0.0462785446533338
485,5.749,0.0430427151750345
486,5.757,0.0442051405417611
487,5.765,0.0382652293593033
488,5.772,0.0424615024916711
489,5.780,0.0530222606106559
490,5.787,0.0533932474298239
491,5.795,0.0445720052851607
492,5.802,0.0391514756495382
493,5.810,0.0536323278243989
494,5.817,0.0475151673838941
495,5.825,0.0569299884392263
496,5.832,0.0460312201072218
497,5.840,0.0429561515838952
498,5.847,0.0390896445130101
499,5.855,0.0491021665547798
500,5.863,0.0335207201497204
501,5.870,0.047375016807764
502,5.878,0.0388217095880554
503,5.885,0.0490197250394091
504,5.893,0.0361423603385082
505,5.900,0.0387351459969162
506,5.908,0.0347449766529751
507,5.915,0.044736888315902
508,5.923,0.0304374074748568
509,5.930,0.0354745840640056
510,5.938,0.0417937262171686
511,5.945,0.0392875041498998
512,5.953,0.0372553207960124
513,5.960,0.0423749389005319
514,5.968,0.0400006232578562
515,5.976,0.0599308595987192
516,5.983,0.0790572911647181
517,5.991,0.061464271784614
518,5.998,0.037028606628743
519,6.006,0.055083298494923
520,6.013,0.0619547988010695
521,6.021,0.0681131799992597
522,6.028,0.0643662131256621
523,6.036,0.0649103271271086
524,6.043,0.0420163183086694
525,6.051,0.0424697466432082
526,6.058,0.0532530968536938
527,6.066,0.0536323278243989
528,6.074,0.0398439843786519
529,6.081,0.0534839330967317
530,6.089,0.0503099347549603
531,6.096,0.0465712120328998
532,6.104,0.0413815186403152
533,6.111,0.0563817523620113
534,6.119,0.0488342316298251
535,6.126,0.0489207952209643
536,6.134,0.0823755621583881
537,6.141,0.10200076489238
538,6.149,0.0840202703900333
539,6.156,0.0783895148902155
540,6.164,0.0755040618522416
541,6.171,0.0532324864748511
542,6.179,0.0531706553383231
543,6.187,0.0418143365960113
544,6.194,0.0505490151495353
545,6.202,0.0526595179430248
546,6.209,0.0544732312811799
547,6.217,0.0561591602705104
548,6.224,0.0583108838216853
549,6.232,0.0543495690081239
550,6.239,0.052622419261108
551,6.247,0.0500749764361539
552,6.254,0.0374861570390503
553,6.262,0.0576678400017939
554,6.269,0.0330137048301907
555,6.277,0.0437682005102965
556,6.285,0.0573792946979965
557,6.292,0.0542671274927532
558,6.300,0.040037721939773
559,6.307,0.0359280123985444
560,6.315,0.041657697716807
561,6.322,0.0584510343978154
562,6.330,0.0640240808368737
563,6.337,0.0488713303117419
564,6.345,0.040763207275035
565,6.352,0.0349016155321794
566,6.360,0.0476182192781075
567,6.367,0.0516083886220486
568,6.375,0.0406848878354329
569,6.382,0.0462373238956485
570,6.390,0.0502274932395896
571,6.398,0.0378571438582184
572,6.405,0.0415093029891397
573,6.413,0.0478408113696083
574,6.420,0.0606151241762959
575,6.428,0.052375094714996
576,6.435,0.0479067645819049
577,6.443,0.0501780283303672
578,6.450,0.0512291576513435
579,6.458,0.0489207952209643
580,6.465,0.039489485862558
581,6.473,0.0444071222544193
582,6.480,0.049188730145919
583,6.488,0.0442175067690667
584,6.495,0.0377582140397736
585,6.503,0.0442834599813633
586,6.511,0.0525564660488115
587,6.518,0.0420451728390492
588,6.526,0.0507757293168047
589,6.533,0.0662335134488081
590,6.541,0.0501491737999875
591,6.548,0.0703638333688794
592,6.556,0.0710769524768358
593,6.563,0.0474162375654493
594,6.571,0.0575730322591176
595,6.578,0.0514970925762982
596,6.586,0.0519340326077628
597,6.593,0.0444153664059564
598,6.601,0.0538054550066774
599,6.609,0.0471070818828092
600,6.616,0.0478861542030622
601,6.624,0.035824960504331
602,6.631,0.0539620938858817
603,6.639,0.0587437017773814
604,6.646,0.0843995013607384
605,6.654,0.0689046185468183
606,6.661,0.049967802466172
607,6.669,0.059897882992571
608,6.676,0.0455283268634606
609,6.684,0.0288256758493599
610,6.691,0.0482447747949247
611,6.699,0.0483230942345268
612,6.706,0.0402809244101165
613,6.714,0.0441185769506219
614,6.722,0.0383023280412201
615,6.729,0.0460312201072218
616,6.737,0.0321109702368817
617,6.744,0.0446956675582167
618,6.752,0.0364556380969168
619,6.759,0.0308001501424878
620,6.767,0.0221149364981862
621,6.774,0.0350252778052354
622,6.782,0.0426346296739496
623,6.789,0.0382363748289236
624,6.797,0.0365545679153616
625,6.804,0.0351654283813655
626,6.812,0.0310227422339886
627,6.820,0.0301200076406796
628,6.827,0.0348274181683457
629,6.835,0.0309773994005348
630,6.842,0.0295552832603905
631,6.850,0.0394647534079468
632,6.857,0.0318389132361584
633,6.865,0.0366988405672603
634,6.872,0.0375892089332637
635,6.880,0.0430839359327198
636,6.887,0.0359980876866095
637,6.895,0.0428366113866078
638,6.902,0.0465629678813627
639,6.910,0.0514517497428443
640,6.917,0.0579852398359711
641,6.925,0.0636366057146315
642,6.933,0.0418802898083078
643,6.940,0.054427888447726
644,6.948,0.0352107712148194
645,6.955,0.0462125914410373
646,6.963,0.0430303489477289
647,6.970,0.0508045838471844
648,6.978,0.047375016807764
649,6.985,0.0411506823972773
650,6.993,0.0417772379140945
651,7.000,0.0519299105319943
652,7.008,0.0452974906204227
653,7.015,0.0456190125303684
654,7.023,0.0734595122710486
655,7.031,0.171564915562163
656,7.038,0.189293963442629
657,7.046,0.113056172103588
658,7.053,0.0783730265871414
659,7.061,0.0519876195927538
660,7.068,0.0602523815086649
661,7.076,0.0721775467070344
662,7.083,0.060268869811739
663,7.091,0.0402685581828109
664,7.098,0.0448935271951063
665,7.106,0.0625318894086643
666,7.113,0.057676084153331
667,7.121,0.0456437449849796
668,7.128,0.0470081520643644
669,7.136,0.0598319297802744
670,7.144,0.0658872590842512
671,7.151,0.0731792111187883
672,7.159,0.0864481730177
673,7.166,0.124136311769408
674,7.174,0.12612727436561
675,7.181,0.0876724295209546
676,7.189,0.0811925264128188
677,7.196,0.0609531343893157
678,7.204,0.0591765197330775
679,7.211,0.0796178934692387
680,7.219,0.0999520932354181
681,7.226,0.135171108601775
682,7.234,0.267889582121271
683,7.242,0.273260646847671
684,7.249,0.155925760096344
685,7.257,0.116263147051508
686,7.264,0.102907621561457
687,7.272,0.0828743333263808
688,7.279,0.0715509911902172
689,7.287,0.072968985254593
690,7.294,0.0738799639994391
691,7.302,0.0564559497258449
692,7.309,0.0525440998215059
693,7.317,0.0563364095285574
694,7.324,0.0562498459374182
695,7.332,0.0587684342319926
696,7.339,0.0471029598070407
697,7.347,0.0484055357498975
