#"+EI TIC Scan TCM-End-Blank.d "
#Point,X(Minutes),Y(Counts)
0,2.095,0.164446020228414
1,2.102,0.151450858960853
2,2.110,0.141618297959328
3,2.117,0.119245659158755
4,2.125,0.1359090689907
5,2.132,0.13163863927101
6,2.140,0.111771257948619
7,2.148,0.126104088805448
8,2.155,0.112387229512062
9,2.163,0.114046675291188
10,2.170,0.105602348708765
11,2.178,0.0979762530091245
12,2.185,0.10056884973884
13,2.193,0.102035229804051
14,2.200,0.0967994715147858
15,2.208,0.0924738801625485
16,2.215,0.0845811699055968
17,2.223,0.078977667399351
18,2.230,0.0857395641890865
19,2.238,0.0780307260406253
20,2.245,0.085711983372813
21,2.253,0.0813863920205757
22,2.261,0.0966018089981586
23,2.268,0.0759989392418061
24,2.276,0.088304580102528
25,2.283,0.0587839130843898
26,2.291,0.06876816857542
27,2.298,0.0760449072689287
28,2.306,0.078517987128125
29,2.313,0.0624889360704719
30,2.321,0.0673431597346192
31,2.328,0.0776216105992341
32,2.336,0.150926823451655
33,2.343,0.14050587170296
34,2.351,0.0953836562794095
35,2.359,0.0930346900934443
36,2.366,0.0830780154186876
37,2.374,0.0758058735278912
38,2.381,0.0859188394948647
39,2.389,0.0749876426451088
40,2.396,0.172614538648101
41,2.404,0.380311875596177
42,2.411,0.162827945673698
43,2.419,0.0853994007883792
44,2.426,0.0566372062177641
45,2.434,0.0619878845748355
46,2.441,0.0693427689144526
47,2.449,0.0664697672192897
48,2.456,0.0577588260795557
49,2.464,0.0601123890682331
50,2.472,0.0701012413619756
51,2.479,0.0939632442413209
52,2.487,0.0740544916945198
53,2.494,0.0665203320491246
54,2.502,0.06809703537943
55,2.509,0.0747532057067835
56,2.517,0.0805129995052461
57,2.524,0.0687773621808446
58,2.532,0.06809703537943
59,2.539,0.0778974187619698
60,2.547,0.0566831742448867
61,2.554,0.0820483316111412
62,2.562,0.0811473582795381
63,2.570,0.114212160188829
64,2.577,0.237392682469279
65,2.585,0.160869707718275
66,2.592,0.0772078983551307
67,2.600,0.0941746971660849
68,2.607,0.0692048648330848
69,2.615,0.0808485661032411
70,2.622,0.0681889714336752
71,2.630,0.078747827263738
72,2.637,0.0792994435892093
73,2.645,0.0583793944457109
74,2.652,0.0626222433491275
75,2.660,0.0641621722577348
76,2.667,0.0666950105521905
77,2.675,0.0693657529280139
78,2.683,0.0563843820685897
79,2.690,0.0579564885961829
80,2.698,0.0629899875661083
81,2.705,0.0710895539451117
82,2.713,0.0772814471985269
83,2.720,0.0854177879992283
84,2.728,0.0792167011403886
85,2.735,0.0961743063459183
86,2.743,0.0845765731028846
87,2.750,0.0592665773691772
88,2.758,0.0579105205690603
89,2.765,0.0841031024235217
90,2.773,0.100504494500868
91,2.780,0.0812530847419201
92,2.788,0.0759575680173958
93,2.796,0.0837307614038286
94,2.803,0.0864520686094869
95,2.811,0.085817709835195
96,2.818,0.0648654830727107
97,2.826,0.0735488433961712
98,2.833,0.0700782573484143
99,2.841,0.0613581226032558
100,2.848,0.0711447155776588
101,2.856,0.0725145627859125
102,2.863,0.0950664768922635
103,2.871,0.0652700017113896
104,2.878,0.062718776206085
105,2.886,0.0803383210021802
106,2.894,0.0772033015524184
107,2.901,0.0676051774892181
108,2.909,0.0710297955098523
109,2.916,0.071323990883437
110,2.924,0.0803153369886189
111,2.931,0.077143543117159
112,2.939,0.0730385982951102
113,2.946,0.0592481901583281
114,2.954,0.129956209478322
115,2.961,3.20502875506953
116,2.969,28.2729522611466
117,2.976,78.4531308386577
118,2.984,100
119,2.991,3.60554357858609
120,2.999,0.166965068114733
121,3.007,0.132199449201905
122,3.014,0.11640943188529
123,3.022,0.0929151732229255
124,3.029,0.0819977667813063
125,3.037,0.0802096105262369
126,3.044,0.10809381577881
127,3.052,0.0919866190750488
128,3.059,0.0702437422460557
129,3.067,0.0742015893813122
130,3.074,0.0628934547091509
131,3.082,0.0539756574473651
132,3.089,0.0668375114362705
133,3.097,0.0468873876650591
134,3.105,0.0524770997631681
135,3.112,0.046832226032512
136,3.120,0.0527253271096302
137,3.127,0.0970017308341252
138,3.135,0.104563471295794
139,3.142,0.0746934472715241
140,3.150,0.0530471032994885
141,3.157,0.0549777604386379
142,3.165,0.0593631102261346
143,3.172,0.0500683751419435
144,3.180,0.0738062643480578
145,3.187,0.0617442540310857
146,3.195,0.0285921128702615
147,3.202,0.048225057254327
148,3.210,0.041472354070016
149,3.218,0.0563705916604529
150,3.225,0.0503579737128159
151,3.233,0.0564441405038491
152,3.240,0.0386958852318105
153,3.248,0.0445981799143533
154,3.255,0.0605766661421715
155,3.263,0.0718434295899224
156,3.270,0.0543020304399356
157,3.278,0.0504177321480753
158,3.285,0.0476274729017331
159,3.293,0.0497052277276749
160,3.300,0.0452417322940698
161,3.308,0.0502430536450094
162,3.316,0.0644287868150459
163,3.323,0.0535067835707145
164,3.331,0.0449337465123483
165,3.338,0.0361860309509162
166,3.346,0.0249698323330001
167,3.353,0.0309134982399532
168,3.361,0.0265833100850036
169,3.368,0.0364710327190764
170,3.376,0.0403461374055121
171,3.383,0.0412149331181294
172,3.391,0.0454439916134093
173,3.398,0.0427962332511471
174,3.406,0.0327430257194329
175,3.413,0.0327246385085839
176,3.421,0.0491398209940669
177,3.429,0.021706102407295
178,3.436,0.0331291571472628
179,3.444,0.0420423576063363
180,3.451,0.052334598879088
181,3.459,0.0428054268565716
182,3.466,0.0435776897122314
183,3.474,0.0327935905492678
184,3.481,0.0387280628507964
185,3.489,0.0984819013074732
186,3.496,0.0733971489066666
187,3.504,0.0441293060377027
188,3.511,0.0456278637218997
189,3.519,0.0339795656490311
190,3.526,0.0226254629497472
191,3.534,0.0266154877039894
192,3.542,0.035018443062002
193,3.549,0.0340715017032763
194,3.557,0.0366595016302791
195,3.564,0.0360711108831097
196,3.572,0.0282381590614175
197,3.579,0.03159842184408
198,3.587,0.0332762548340552
199,3.594,0.0377949119002075
200,3.602,0.0329636722496215
201,3.609,0.0399416187668332
202,3.617,0.0253329797472687
203,3.624,0.031368581708467
204,3.632,0.0252042692713254
205,3.640,0.0162864720095397
206,3.647,0.0264270187927867
207,3.655,0.0293781661340581
208,3.662,0.0254341094069384
209,3.670,0.0203822232261639
210,3.677,0.040185249310583
211,3.685,0.0308813206209674
212,3.692,0.0234666778460909
213,3.700,0.0356573986390062
214,3.707,0.0282243686532807
215,3.715,0.0299987345002133
216,3.722,0.0307801909612976
217,3.730,0.0179689018022271
218,3.737,0.0367744216980856
219,3.745,0.0372524891801607
220,3.753,0.0231954664860675
221,3.760,0.0336348054456115
222,3.768,0.0270062159345316
223,3.775,0.0368020025143591
224,3.783,0.0273279921243898
225,3.790,0.016433569696332
226,3.798,0.03145592096
227,3.805,0.0194950403026976
228,3.813,0.0275716226681397
229,3.820,0.0221795730866579
230,3.828,0.0364802263245009
231,3.835,0.0246204753268683
232,3.843,0.0294379245693175
233,3.851,0.0149258184067105
234,3.858,0.0283025142993891
235,3.866,0.0301963970168405
236,3.873,0.0274750898111822
237,3.881,0.0573267266246032
238,3.888,0.0289644538899547
239,3.896,0.0238711964847698
240,3.903,0.0295298606235627
241,3.911,0.0170219604435014
242,3.918,0.0380477360493818
243,3.926,0.0317271323200233
244,3.933,0.031474308170849
245,3.941,0.0450440697774426
246,3.948,0.018777939079585
247,3.956,0.0382591889741458
248,3.964,0.0350414270755633
249,3.971,0.0746612696525382
250,3.979,0.0816300225643255
251,3.986,0.0358872387746193
252,3.994,0.032462620753985
253,4.001,0.0383878994500891
254,4.009,0.0565728509797924
255,4.016,0.0289828411008037
256,4.024,0.0364710327190764
257,4.031,0.0279761413068186
258,4.039,0.0477653769831009
259,4.046,0.0532585562242524
260,4.054,0.0334693205479701
261,4.062,0.0434305920254391
262,4.069,0.0443177749489054
263,4.077,0.0326832672841736
264,4.084,0.0316673738847639
265,4.092,0.0495075652110477
266,4.099,0.0514841903773198
267,4.107,0.0476734409288557
268,4.114,0.0392061303328715
269,4.122,0.0269142798802864
270,4.129,0.031350194497618
271,4.137,0.0468690004542101
272,4.144,0.0347058604775683
273,4.152,0.0477653769831009
274,4.159,0.0288679210329972
275,4.167,0.0356941730607043
276,4.175,0.0489789328991377
277,4.182,0.0285553384485635
278,4.190,0.03942677686306
279,4.197,0.0297964751808738
280,4.205,0.0310238215050474
281,4.212,0.0288219530058746
282,4.220,0.0399324251614087
283,4.227,0.0230897400236855
284,4.235,0.0372386987720239
285,4.242,0.0397991178827531
286,4.250,0.0287392105570539
287,4.257,0.0216555375774601
288,4.265,0.024174585463779
289,4.273,0.0219865073727429
290,4.280,0.0233517577782843
291,4.288,0.0229518359423177
292,4.295,0.00766287012133858
293,4.303,0.0231632888670817
294,4.310,0.0181297898971562
295,4.318,0.0260592745758059
296,4.325,0.0258478216510419
297,4.333,0.0174862375174397
298,4.340,0.0245147488644863
299,4.348,0.0202213351312348
300,4.355,0.0210441628167295
301,4.363,0.0129813708594242
302,4.370,0.0259167736917258
303,4.378,0.0259489513107116
304,4.386,0.0264224219900745
305,4.393,0.0093223159004647
306,4.401,0.0292448588554026
307,4.408,0.0390820166596405
308,4.416,0.0738660227833172
309,4.423,0.134870191577729
310,4.431,0.0670673515718836
311,4.438,0.02867025851637
312,4.446,0.0314651145654245
313,4.453,0.0427502652240245
314,4.461,0.0131376621516411
315,4.468,0.00978199617169077
316,4.476,0.0132801630357212
317,4.483,0.0359469972098787
318,4.491,0.025250237298448
319,4.499,0.0278290436200263
320,4.506,0.0266568589283998
321,4.514,0.014387992489376
322,4.521,0.0262799211059944
323,4.529,0.0568210783262545
324,4.536,0.0261282266164898
325,4.544,0.0177620456801753
326,4.551,0.0311939032054011
327,4.559,0.0279669477013941
328,4.566,0.0192973777860704
329,4.574,0.0317822939525705
330,4.581,0.030063089738185
331,4.589,0.0254387062096507
332,4.597,0.0306238996690808
333,4.604,0.0338646455812246
334,4.612,0.049636275686991
335,4.619,0.0223450579842993
336,4.627,0.0380523328520941
337,4.634,0.0407920272686014
338,4.642,0.0301642193978547
339,4.649,0.0298194591944351
340,4.657,0.0259397577052871
341,4.664,0.0391279846867631
342,4.672,0.024068859001397
343,4.679,0.0241424078447932
344,4.687,0.0192054417318252
345,4.694,0.0340393240842905
346,4.702,0.0313410008921934
347,4.710,0.0179137401696799
348,4.717,0.0211269052655502
349,4.725,0.0474206167796814
350,4.732,0.0247537826055239
351,4.740,0.0340715017032763
352,4.747,0.0234299034243928
353,4.755,0.0312674520487973
354,4.762,0.0424744570612888
355,4.770,0.0386039491775653
356,4.777,0.037151359520491
357,4.785,0.0260362905622446
358,4.792,0.00607237638289638
359,4.800,0.0340990825195499
360,4.808,0.0324810079648341
361,4.815,0.0154544507186205
362,4.823,0.0294701021883033
363,4.830,0.0336118214320502
364,4.838,0.042548005904685
365,4.845,0.0249744291357124
366,4.853,0.0224599780521058
367,4.860,0.00805359835188074
368,4.868,0.0185251149304106
369,4.875,0.0176195447960953
370,4.883,0.0257696760049335
371,4.890,0.0207131930214467
372,4.898,0.0207867418648429
373,4.905,0.0283071111021014
374,4.913,0.0210303724085927
375,4.921,0.0344346491175449
376,4.928,0.0250571715845331
377,4.936,0.0233057897511617
378,4.943,0.0347242476884173
379,4.951,0.0216739247883092
380,4.958,0.0325637504136548
381,4.966,0.0146408166385503
382,4.973,0.0265971004931404
383,4.981,0.0292218748418413
384,4.988,0.0207039994160222
385,4.996,0.0251491076387783
386,5.003,0.0297091359293409
387,5.011,0.0358228835366476
388,5.019,0.0494707907893496
389,5.026,0.0226024789361858
390,5.034,0.0248549122651936
391,5.041,0.0269740383155458
392,5.049,0.0215406175096536
393,5.056,0.00975901215812946
394,5.064,0.0278658180417244
395,5.071,0.0202167383285225
396,5.079,0.0170909124841853
397,5.086,0.0336302086428993
398,5.094,0.0191364896911413
399,5.101,0.0400473452292152
400,5.109,0.0256409655289902
401,5.116,0.029552844637124
402,5.124,0.0172150261574163
403,5.132,0.0243446671641327
404,5.139,0.0323247166726172
405,5.147,0.0320718925234429
406,5.154,0.0174540598984539
407,5.162,0.0193065713914949
408,5.169,0.0212785997550548
409,5.177,0.0179275305778167
410,5.184,0.0180424506456232
411,5.192,0.00722157706096156
412,5.199,0.00983256100152563
413,5.207,0.020929242748923
414,5.214,0.0204235944505743
415,5.222,0.0128664507916177
416,5.229,0.0123148344661464
417,5.237,0.0228001414528131
418,5.245,0.0181757579242788
419,5.252,0.00774101576744701
420,5.260,0.0193617330240421
421,5.267,0.0203362551990413
422,5.275,0.0104669197758176
423,5.282,0.0133031470492825
424,5.290,0.0167921203078883
425,5.297,0.0105358718165015
426,5.305,0.0206028697563524
427,5.312,0.0125216905881981
428,5.320,0.0274291217840596
429,5.327,0.0207269834295835
430,5.335,0.0179643049995148
431,5.343,0.0182952747947976
432,5.350,0.0127193531048254
433,5.358,0.00984175460695015
434,5.365,0.0113770867128452
435,5.373,0.0102738540619027
436,5.380,0.019324958602344
437,5.388,0.0120344295006985
438,5.395,0.0120160422898495
439,5.403,0.00825126086850795
440,5.410,0.0125768522207453
441,5.418,0.0189572143853631
442,5.425,0.0147787207199181
443,5.433,0.0194720562891363
444,5.440,0.0257053207669618
445,5.448,0.0189296335690896
446,5.456,0.0175230119391378
447,5.463,0.026325889133117
448,5.471,0.0312996296677831
449,5.478,0.0379328159815753
450,5.486,0.0292264716445535
451,5.493,0.0230345783911384
452,5.501,0.0189985856097735
453,5.508,0.0334785141533947
454,5.516,0.00987393222593598
455,5.523,0.0235678075057606
456,5.531,0.0136938752798246
457,5.538,0.0197018964247494
458,5.546,0.0146729942575361
459,5.554,0.0166955874509309
460,5.561,0.0174816407147274
461,5.569,0.0203730296207394
462,5.576,0.022887480704346
463,5.584,0.0236597435600058
464,5.591,0.0159325182006956
465,5.599,0.0216739247883092
466,5.606,0.0137628273205085
467,5.614,0.0320305212990325
468,5.621,0.0224140100249832
469,5.629,0.049847728611755
470,5.636,0.036939906595727
471,5.644,0.0149625928284086
472,5.651,0.0319983436800467
473,5.659,0.0199639141793482
474,5.667,0.0399324251614087
475,5.674,0.0358274803393599
476,5.682,0.0199041557440888
477,5.689,0.0282749334831155
478,5.697,0.0311525319809907
479,5.704,0.0240872462122461
480,5.712,0.0291345355903083
481,5.719,0.0238160348522227
482,5.727,0.0410770290367616
483,5.734,0.0436190609366418
484,5.742,0.0258110472293438
485,5.749,0.0182906779920853
486,5.757,0.0352436863949028
487,5.765,0.0312030968108256
488,5.772,0.0325361695973812
489,5.780,0.0323155230671927
490,5.787,0.0216417471693234
491,5.795,0.0144431541219231
492,5.802,0.025673143147976
493,5.810,0.0310881767430191
494,5.817,0.0212694061496302
495,5.825,0.0365905495895952
496,5.832,0.032637299257051
497,5.840,0.0288219530058746
498,5.847,0.0115333780050621
499,5.855,0.0201477862878386
500,5.862,0.0216969088018705
501,5.870,0.0195226211189712
502,5.878,0.0329131074197866
503,5.885,0.0227082053985678
504,5.893,0.0348759421779219
505,5.900,0.0291023579713225
506,5.908,0.0150453352772293
507,5.915,0.0211958573062341
508,5.923,0.0335750470103521
509,5.930,0.0255444326720327
510,5.938,0.0170403476543504
511,5.945,0.0257742728076457
512,5.953,0.0203040775800555
513,5.960,0.0198122196898436
514,5.968,0.041136787472021
515,5.976,0.0218440064886628
516,5.983,0.013946699428999
517,5.991,0.0181481771080052
518,5.998,0.0179551113940903
519,6.006,0.0246940241702645
520,6.013,0.0240780526068215
521,6.021,0.0201661734986877
522,6.028,0.0390498390406546
523,6.036,0.0291621164065819
524,6.043,0.0169392179946807
525,6.051,0.0261052426029285
526,6.058,0.031915601231226
527,6.066,0.0309778534779248
528,6.073,0.0351011855108227
529,6.081,0.0315110825925471
530,6.089,0.00809037277357883
531,6.096,0.0350322334701388
532,6.104,0.0276911395386584
533,6.111,0.0091108629757007
534,6.119,0.0292586492635393
535,6.126,0.0403231533919508
536,6.134,0.0639783001492444
537,6.141,0.0700276925185795
538,6.149,0.0802050137235246
539,6.156,0.0329223010252111
540,6.164,0.0388613701294519
541,6.171,0.0251628980469151
542,6.179,0.0344576331311062
543,6.186,0.0269004894721496
544,6.194,0.0339014200029226
545,6.202,0.0194582658809995
546,6.209,0.0228920775070583
547,6.217,0.0249652355302878
548,6.224,0.0400289580183662
549,6.232,0.0301412353842934
550,6.239,0.0332578676232061
551,6.247,0.0304078499416045
552,6.254,0.0347334412938418
553,6.262,0.0330050434740318
554,6.269,0.0354459457142422
555,6.277,0.0250617683872453
556,6.284,0.029745910351039
557,6.292,0.018161967516142
558,6.300,0.0317547131362969
559,6.307,0.0254984646449101
560,6.315,0.0262983083168435
561,6.322,0.028017512531229
562,6.330,0.0242573279125997
563,6.337,0.0223266707734502
564,6.345,0.00784674222982901
565,6.352,0.0243998287966798
566,6.360,0.0157900173166155
567,6.367,0.0245469264834721
568,6.375,0.0232414345131901
569,6.382,0.0180424506456232
570,6.390,0.0158359853437381
571,6.397,0.0144569445300599
572,6.405,0.0199501237712114
573,6.413,0.0372065211530381
574,6.420,0.0359056259854683
575,6.428,0.0365905495895952
576,6.435,0.0122504792281748
577,6.443,0.0221244114541107
578,6.450,0.0255076582503346
579,6.458,0.0235953883220342
580,6.465,0.0160704222820634
581,6.473,0.0171230901031711
582,6.480,0.0156429196298232
583,6.488,0.0275256546410171
584,6.495,0.0208694843136636
585,6.503,0.0184929373114248
586,6.511,0.0345357787772146
587,6.518,0.0276405747088236
588,6.526,0.0158084045274645
589,6.533,0.0135651648038813
590,6.541,0.0238941804983311
591,6.548,0.0241837790692035
592,6.556,0.0436558353583398
593,6.563,0.0285277576322899
594,6.571,0.00778698379456962
595,6.578,0.0277279139603565
596,6.586,0.0248135410407832
597,6.593,0.016557683369563
598,6.601,0.0136019392255794
599,6.608,0.0274934770220312
600,6.616,0.0222577187327663
601,6.624,0.0253927381825281
602,6.631,0.0250709619926698
603,6.639,0.0107519215439778
604,6.646,0.0324396367404237
605,6.654,0.041807920668011
606,6.661,0.0165530865668508
607,6.669,0.014810898338904
608,6.676,0.0211682764899605
609,6.684,0.0176884968367792
610,6.691,0.00653665345683471
611,6.699,0.0221703794812333
612,6.706,0.0181895483324156
613,6.714,0.0145810582032909
614,6.722,0.0110415201148502
615,6.729,0.0279025924634224
616,6.737,0.0119746710654391
617,6.744,0.0203086743827678
618,6.752,0.0112851506586
619,6.759,0.00980038338253981
620,6.767,0.0174080918713313
621,6.774,0.0106691790951571
622,6.782,0.0168334915322987
623,6.789,0.0158405821464504
624,6.797,0.0172150261574163
625,6.804,0.0110782945365483
626,6.812,0.0152429977938565
627,6.819,0.0188101166985708
628,6.827,0.00621487726697646
629,6.835,0.0096257048794739
630,6.842,0
631,6.850,0.0105910334490486
632,6.857,0.0110782945365483
633,6.865,0.0154866283376063
634,6.872,0.030274542662949
635,6.880,0.00721238345553703
636,6.887,0.0194352818674382
637,6.895,0.0120666071196843
638,6.902,0.0189801983989244
639,6.910,0.0227587702284027
640,6.917,0.0239309549200292
641,6.925,0.0249284611085898
642,6.932,0.0123745929014058
643,6.940,0.0201110118661406
644,6.948,0.0298332496025719
645,6.955,0.0238620028793453
646,6.963,0.0334279493235598
647,6.970,0.0188193103039953
648,6.978,0.0265511324660178
649,6.985,0.0272222656620079
650,6.993,0.030839949396557
651,7.000,0.0227403830175537
652,7.008,0.0248457186597691
653,7.015,0.016010663846804
654,7.023,0.049107643375081
655,7.030,0.152273686646348
656,7.038,0.156029274462265
657,7.046,0.0900008003033522
658,7.053,0.0662537174918134
659,7.061,0.0488226416069209
660,7.068,0.0595653695454741
661,7.076,0.0475815048746105
662,7.083,0.0569635792103346
663,7.091,0.0411184002611719
664,7.098,0.0281829974288703
665,7.106,0.038351125028391
666,7.113,0.0298332496025719
667,7.121,0.031809874768844
668,7.128,0.0185756797602455
669,7.136,0.0346323116341721
670,7.143,0.0309686598725003
671,7.151,0.0407046880170685
672,7.159,0.0552030037715387
673,7.166,0.0999758621889579
674,7.174,0.106471144421382
675,7.181,0.0790420226373227
676,7.189,0.0586046377786116
677,7.196,0.0575381795493672
678,7.204,0.0543020304399356
679,7.211,0.0682946978960572
680,7.219,0.0573956786652871
681,7.226,0.100743528241905
682,7.234,0.208644278306801
683,7.241,0.235154039548408
684,7.249,0.192210708610469
685,7.257,0.128802411997545
686,7.264,0.106475741224095
687,7.272,0.0681567938146894
688,7.279,0.0638909608977114
689,7.287,0.0678580016383924
690,7.294,0.0451451994371123
691,7.302,0.0492363538510243
692,7.309,0.047149405419658
693,7.317,0.0464001265775595
694,7.324,0.0460139951497296
695,7.332,0.0336485958537483
