#"+EI TIC Scan TCM-PEEK.d "
#Point,X(Minutes),Y(Counts)
0,2.095,0.18628281288256
1,2.102,0.167212391916236
2,2.110,0.182465707233637
3,2.117,0.163747789427504
4,2.125,0.156093435091931
5,2.132,0.152024541471443
6,2.140,0.157750199944828
7,2.147,0.144893906116725
8,2.155,0.144848584281844
9,2.163,0.145170872885447
10,2.170,0.212181723637724
11,2.178,0.188750335003896
12,2.185,0.129539875610699
13,2.193,0.124650153202909
14,2.200,0.163682324554897
15,2.208,0.164845584983527
16,2.215,0.125904057301302
17,2.223,0.126931352225287
18,2.230,0.14844411651579
19,2.238,0.125027835160257
20,2.245,0.119815824148863
21,2.253,0.171492787432839
22,2.261,0.155766110728897
23,2.268,0.102789921511646
24,2.276,0.102366917719417
25,2.283,0.107735037273181
26,2.291,0.0981167367594022
27,2.298,0.104935155029379
28,2.306,0.112564330567795
29,2.313,0.190417171375656
30,2.321,0.143735681447527
31,2.328,0.106924280004742
32,2.336,0.0974620880333335
33,2.343,0.0800685749576316
34,2.351,0.0889768333915971
35,2.358,0.0684359706713342
36,2.366,0.0904019533106543
37,2.374,0.0647951166025061
38,2.381,0.0830749233381163
39,2.389,0.10094179780036
40,2.396,0.33398667276195
41,2.404,0.406244784841639
42,2.411,0.135446821423611
43,2.419,0.102452525629749
44,2.426,0.119866181743176
45,2.434,0.0807030806459751
46,2.441,0.0764831142425478
47,2.449,0.0636318561738763
48,2.456,0.0877078220149101
49,2.464,0.221588522255388
50,2.472,0.405710994341921
51,2.479,0.19668165610819
52,2.487,0.169025265311504
53,2.494,0.116089362169703
54,2.502,0.0844597571817231
55,2.509,0.0767600810112691
56,2.517,0.0835835350406774
57,2.524,0.060902474562113
58,2.532,0.0754004259648188
59,2.539,0.0840015030734751
60,2.547,0.0809447970986774
61,2.554,0.0769464041102271
62,2.562,0.0714423190518189
63,2.569,0.081851233796311
64,2.577,0.066064127979193
65,2.585,0.0532984778208537
66,2.592,0.067297889039861
67,2.600,0.0815339809521392
68,2.607,0.0733710149140058
69,2.615,0.0750177082480402
70,2.622,0.0737033750364715
71,2.630,0.0713617469009181
72,2.637,0.0754004259648188
73,2.645,0.058127771115468
74,2.652,0.0754709265968569
75,2.660,0.0713969972169372
76,2.667,0.0675647842897197
77,2.675,0.0665123105685785
78,2.683,0.0574680866299681
79,2.690,0.065877804880235
80,2.698,0.0725602576455669
81,2.705,0.0776363031523149
82,2.713,0.0794592480664446
83,2.720,0.14328246309871
84,2.728,0.114880779906192
85,2.735,0.0937658406107611
86,2.743,0.0789002787695706
87,2.750,0.0762212547521203
88,2.758,0.0609326891187008
89,2.765,0.0710747086133341
90,2.773,0.0924565431586237
91,2.780,0.0664619529742656
92,2.788,0.0583795590870329
93,2.796,0.0608017593734871
94,2.803,0.0767399379735439
95,2.811,0.0804966145092919
96,2.818,0.0720415744241433
97,2.826,0.186997890721805
98,2.833,0.229660844623758
99,2.841,0.0884480786513108
100,2.848,0.0740407709183684
101,2.856,0.0540286629383918
102,2.863,0.0512841740483346
103,2.871,0.0532229414293842
104,2.878,0.0627858485894183
105,2.886,0.0903062738814596
106,2.893,0.0765183645585668
107,2.901,0.0767449737329752
108,2.909,0.0741717006635822
109,2.916,0.0654749441257312
110,2.924,0.0717847506931471
111,2.931,0.0686323652891548
112,2.939,0.0566522936020979
113,2.946,0.059497497680781
114,2.954,0.262786070162833
115,2.961,6.74949886640019
116,2.969,39.2609710817486
117,2.976,90.6124681979203
118,2.984,100
119,2.991,2.63041383166
120,2.999,0.162468706531954
121,3.007,0.106778242981234
122,3.014,0.105071120534024
123,3.022,0.087249567906662
124,3.029,0.0776866607466279
125,3.037,0.0980059500519136
126,3.044,0.100287149074291
127,3.052,0.0705862399484983
128,3.059,0.065555516276632
129,3.067,0.0804764714715667
130,3.074,0.06865250832688
131,3.082,0.0519488942932659
132,3.089,0.0699618057790174
133,3.097,0.06706120834659
134,3.104,0.054894813560575
135,3.112,0.0606154362745291
136,3.120,0.0652785495079106
137,3.127,0.11623036343378
138,3.135,0.0863431312090284
139,3.142,0.0445463279292585
140,3.150,0.0498993402047278
141,3.157,0.0733256930791242
142,3.165,0.0781046287794256
143,3.172,0.0483432905404568
144,3.180,0.0596082843882695
145,3.187,0.0425723102321898
146,3.195,0.0485749354742965
147,3.202,0.0441384314153234
148,3.210,0.0560933243052238
149,3.218,0.061849197335197
150,3.225,0.0627103121979489
151,3.233,0.05475884805593
152,3.240,0.0393343169178655
153,3.248,0.0421996640342738
154,3.255,0.0596787850203077
155,3.263,0.0576896600449452
156,3.270,0.0567882591067429
157,3.278,0.0481217171254797
158,3.285,0.0613859074675176
159,3.293,0.0473260671353347
160,3.300,0.0587270264877925
161,3.308,0.0662806656347388
162,3.315,0.0771427987280477
163,3.323,0.0405630422191021
164,3.331,0.0375063362443044
165,3.338,0.0577148388421016
166,3.346,0.0544869170466399
167,3.353,0.0463793443622508
168,3.361,0.0563098619607696
169,3.368,0.0448635807734302
170,3.376,0.0524826847929835
171,3.383,0.0384278802202319
172,3.391,0.0455836943721058
173,3.398,0.0444909345755142
174,3.406,0.0422953434634684
175,3.413,0.0364135764477129
176,3.421,0.0393242453990029
177,3.429,0.0358495713914075
178,3.436,0.0273240306742207
179,3.444,0.0473663532107851
180,3.451,0.255801471831624
181,3.459,0.604054451062439
182,3.466,0.346505570708156
183,3.474,0.0810505480467347
184,3.481,0.0674036399879182
185,3.489,0.128975870554394
186,3.496,0.0952916757184442
187,3.504,0.0544516667306208
188,3.511,0.0408299374689608
189,3.519,0.0318159280869382
190,3.526,0.0475828908663309
191,3.534,0.0397573207100945
192,3.542,0.0417816960014761
193,3.549,0.0824958110035171
194,3.557,0.154955353460458
195,3.564,0.0851597277426735
196,3.572,0.0341474847036289
197,3.579,0.0243630041286177
198,3.587,0.0393544599555906
199,3.594,0.0258082670854001
200,3.602,0.0147245605771141
201,3.609,0.0270269208677742
202,3.617,0.031795785049213
203,3.624,0.0234968535064345
204,3.632,0.029731123682381
205,3.639,0.030003054691671
206,3.647,0.0252593693073887
207,3.655,0.027379424027965
208,3.662,0.0323094325112053
209,3.670,0.0240507870438773
210,3.677,0.0180884478772209
211,3.685,0.013148367875118
212,3.692,0.0246298993784765
213,3.700,0.0249924740575299
214,3.707,0.051747463916014
215,3.715,0.0358445356319762
216,3.722,0.0224745943418811
217,3.730,0.0227868114266216
218,3.737,0.0301843420311977
219,3.745,0.0260147332220833
220,3.753,0.0201380019657591
221,3.760,0.0201833238006407
222,3.768,0.0214674424556216
223,3.775,0.0341474847036289
224,3.783,0.0212106187246254
225,3.790,0.0300735553237092
226,3.798,0.0316396765068427
227,3.805,0.01071106031037
228,3.813,0.0115721751731219
229,3.820,0.0283966474330871
230,3.828,0.0291822259043695
231,3.835,0.0234263528743964
232,3.843,0.0256672658213238
233,3.850,0.0278225708579192
234,3.858,0.0236126759733544
235,3.866,0.028074358829484
236,3.873,0.0239651791335452
237,3.881,0.0312468872712015
238,3.888,0.0250579389301368
239,3.896,0.0226558816814078
240,3.903,0.0189495627399728
241,3.911,0.0283261468010489
242,3.918,0.0157669627793927
243,3.926,0.0212307617623506
244,3.933,0.0188438117919156
245,3.941,0.0208732228427285
246,3.948,0.0339712331235335
247,3.956,0.0267902401745032
248,3.964,0.0418723396712394
249,3.971,0.0935241241580588
250,3.979,0.0465002025886019
251,3.986,0.0142763779877287
252,3.994,0.0219005177667132
253,4.001,0.0294692641919535
254,4.009,0.0291419398289191
255,4.016,0.0296555872909115
256,4.024,0.0260499835381024
257,4.031,0.0133497982523699
258,4.039,0.0222479851674727
259,4.046,0.0138030166011867
260,4.054,0.0147195248176828
261,4.061,0.0142461634311409
262,4.069,0.0283261468010489
263,4.077,0.0221825202948659
264,4.084,0.0294843714702474
265,4.092,0.0278779642116634
266,4.099,0.0168395795382591
267,4.107,0.0203041820269919
268,4.114,0.0244032902040681
269,4.122,0.0246903284916521
270,4.129,0.00996073215510663
271,4.137,0.016854686816553
272,4.144,0.0157820700576866
273,4.152,0.0513043170860598
274,4.159,0.0193322804567514
275,4.167,0.033910804010358
276,4.175,0.0249521879820795
277,4.182,0.0299678043756519
278,4.190,0.0168647583354156
279,4.197,0.0211501896114499
280,4.205,0.00808742964666393
281,4.212,0.0282908964850298
282,4.220,0.0397976067855448
283,4.227,0.0338302318594572
284,4.235,0.0224544513041559
285,4.242,0.034605738811877
286,4.250,0.251002393093597
287,4.257,1.09922067594193
288,4.265,0.855590634655754
289,4.272,0.160580296745217
290,4.280,0.0347114897599343
291,4.288,0.0240810016004651
292,4.295,0.0166230418827133
293,4.303,0.0178316241462248
294,4.310,0.0317706062520565
295,4.318,0.0292124404609573
296,4.325,0.0150669922184424
297,4.333,0.0177158016793049
298,4.340,0.0216487297951483
299,4.348,0.0279585363625642
300,4.355,0.00203444681024423
301,4.363,0.0100614473437326
302,4.370,0.0174589779483087
303,4.378,0.0180179472451828
304,4.386,0.0103434498718852
305,4.393,0.0234918177470032
306,4.401,0.0327072575062778
307,4.408,0.0296858018474993
308,4.416,0.132737582849573
309,4.423,0.157045193624447
310,4.431,0.0435693905995867
311,4.438,0.0261708417644536
312,4.446,0.032118073652816
313,4.453,0.0116527473240226
314,4.461,0.0227666683888964
315,4.468,0.012539040983931
316,4.476,0.0173582627596828
317,4.483,0.0117987843475302
318,4.491,0.024368039888049
319,4.499,0.020661720946614
320,4.506,0.0154547456946523
321,4.514,0.0303052002575489
322,4.521,0.0180028399668889
323,4.529,0.0159079640434691
324,4.536,0.0343740938780373
325,4.544,0.018461094075137
326,4.551,0.0174942282643278
327,4.559,0.022676024719133
328,4.566,0.0212861551160949
329,4.574,0.0184208079996866
330,4.581,0.0189999203342858
331,4.589,0.0214372278990338
332,4.596,0.032254039157461
333,4.604,0.0202790032298354
334,4.612,0.0231443503462437
335,4.619,0.0216588013140109
336,4.627,0.0229429199689918
337,4.634,0.00248766515906101
338,4.642,0.0205761130362819
339,4.649,0.0192668155841446
340,4.657,0.0162906817602477
341,4.664,0.0240155367278582
342,4.672,0.0167791504250836
343,4.679,0.0228119902237781
344,4.687,0.0171366893447057
345,4.694,0
346,4.702,0.0170107953589233
347,4.710,0.0221120196628277
348,4.717,0.025637051264736
349,4.725,0.00319770723887397
350,4.732,0.0129167229412783
351,4.740,0.0219256965638697
352,4.747,0.0186826674901141
353,4.755,0.0124584688330302
354,4.762,0.0111441356214616
355,4.770,0.0184006649619614
356,4.777,0.0292225119798199
357,4.785,0.0220213759930643
358,4.792,0.0288196512253161
359,4.800,0.0268003116933658
360,4.807,0.0182999497733354
361,4.815,0.0167640431467897
362,4.823,0.0385336311682891
363,4.830,0.00788599926941202
364,4.838,0.0140396972944577
365,4.845,0.0138281953983432
366,4.853,0.00923558279699977
367,4.860,0.0217645522620682
368,4.868,0.0136418722993852
369,4.875,0.00572062271395406
370,4.883,0.0103132353152975
371,4.890,0.0273139591553581
372,4.898,0.0222379136486101
373,4.905,0.00248262939962971
374,4.913,0.0208279010078468
375,4.921,0.023199743699988
376,4.928,0.00879243596704559
377,4.936,0.0214221206207399
378,4.943,0.00325813635204954
379,4.951,0.0185013801505873
380,4.958,0.0205156839231064
381,4.966,0.0247205430482399
382,4.973,0.0279031430088199
383,4.981,0.0271628863724192
384,4.988,0.0173028694059385
385,4.996,0.0101621625323585
386,5.003,0.0147094532988203
387,5.011,0.0328885448458045
388,5.018,0.0286433996452207
389,5.026,0.035265423297377
390,5.034,0.023149386105675
391,5.041,0.0571155834697772
392,5.049,0.0917817513948298
393,5.056,0.233689452168796
394,5.064,0.242094134659632
395,5.071,0.0986857775751388
396,5.079,0.0560077163948918
397,5.086,0.0534092645283422
398,5.094,0.0432068159205333
399,5.101,0.0426881326991096
400,5.109,0.0298368746304382
401,5.116,0.0296102654560298
402,5.124,0.0462786291736248
403,5.132,0.0383674511070563
404,5.139,0.0325108628884572
405,5.147,0.019629390263198
406,5.154,0.0174791209860339
407,5.162,0.0275456040891978
408,5.169,0.0256924446184803
409,5.177,0.0176402652878354
410,5.184,0.0269815990328925
411,5.192,0.0243630041286177
412,5.199,0.0286685784423772
413,5.207,0.0247356503265337
414,5.214,0.026956420235736
415,5.222,0.0151072782938928
416,5.229,0.0271175645375375
417,5.237,0.0218602316912628
418,5.245,0.0226911319974269
419,5.252,0.0162856460008164
420,5.260,0.0130526884459233
421,5.267,0.0203243250647171
422,5.275,0.031221708474045
423,5.282,0.0271729578912818
424,5.290,0.0197905345649995
425,5.297,0.0114110308713203
426,5.305,0.0167892219439462
427,5.312,0.0200121079799766
428,5.320,0.0174337991511522
429,5.327,0.0120002147247822
430,5.335,0.0131534036345493
431,5.342,0.0205710772768506
432,5.350,0.0243478968503238
433,5.358,0.0113002441638318
434,5.365,0.024705435769946
435,5.373,0.0183352000893545
436,5.380,0.0255313003166788
437,5.388,0.0281650024992474
438,5.395,0.0358697144291327
439,5.403,0.0376120871923617
440,5.410,0.0303152717764115
441,5.418,0.0141655912802401
442,5.425,0.0293332986873084
443,5.433,0.0339410185669457
444,5.440,0.0208883301210224
445,5.448,0.0308692053138542
446,5.456,0.0371286542869571
447,5.463,0.0222731639646292
448,5.471,0.0427133114962661
449,5.478,0.0368365802399419
450,5.486,0.0396918558374876
451,5.493,0.0266341316321329
452,5.501,0.0141404124830836
453,5.508,0.0329237951618236
454,5.516,0.0230788854736368
455,5.523,0.0256068367081482
456,5.531,0.034182735019648
457,5.538,0.0421795209965486
458,5.546,0.0227918471860529
459,5.553,0.03915806533777
460,5.561,0.0334827644586977
461,5.569,0.0396515697620372
462,5.576,0.0391882798943578
463,5.584,0.018833740273053
464,5.591,0.0267096680236024
465,5.599,0.0327525793411595
466,5.606,0.0322741821951862
467,5.614,0.0295145860268352
468,5.621,0.0286232566074955
469,5.629,0.0305569882291138
470,5.636,0.0209235804370415
471,5.644,0.035824392594251
472,5.651,0.0323698616243809
473,5.659,0.0328079726949038
474,5.667,0.0351244220333007
475,5.674,0.0259643756277704
476,5.682,0.0400997523514227
477,5.689,0.0309699205024802
478,5.697,0.0204854693665186
479,5.704,0.0327626508600221
480,5.712,0.0297009091257932
481,5.719,0.0412579770206211
482,5.727,0.0372595840321708
483,5.734,0.0431010649724761
484,5.742,0.0353560669671404
485,5.749,0.0382465928807052
486,5.757,0.0559875733571666
487,5.764,0.0332762983220145
488,5.772,0.0492547629975217
489,5.780,0.0484742202856706
490,5.787,0.0335935511661862
491,5.795,0.0383170935127433
492,5.802,0.0453117633628157
493,5.810,0.0388005264181479
494,5.817,0.0314734964456099
495,5.825,0.0384681662956823
496,5.832,0.0284369335085375
497,5.840,0.0380300552251594
498,5.847,0.0307030252526214
499,5.855,0.0435542833212928
500,5.862,0.0429248133923806
501,5.870,0.048736079776098
502,5.878,0.0399436438090525
503,5.885,0.0401148596297166
504,5.893,0.0360157514526403
505,5.900,0.0450146535563691
506,5.908,0.03465609640619
507,5.915,0.0339158397697892
508,5.923,0.0325863992799267
509,5.930,0.0435442118024302
510,5.938,0.0311965296768886
511,5.945,0.0439218937597776
512,5.953,0.0404371482333196
513,5.960,0.0443600048303004
514,5.968,0.0253600844960147
515,5.975,0.0332259407277015
516,5.983,0.0376976951026937
517,5.991,0.0425974890293463
518,5.998,0.0493252636295599
519,6.006,0.0454980864617737
520,6.013,0.0429701352272623
521,6.021,0.0416759450534188
522,6.028,0.0554034252631361
523,6.036,0.0486605433846286
524,6.043,0.0555947841215254
525,6.051,0.0732451209282234
526,6.058,0.0936651254221351
527,6.066,0.0768003670867195
528,6.073,0.0781298075765821
529,6.081,0.0573421926441856
530,6.089,0.0756824284929714
531,6.096,0.060952832156426
532,6.104,0.0664166311393839
533,6.111,0.0594269970487428
534,6.119,0.0669403501202388
535,6.126,0.0808138673534637
536,6.134,0.0699869845761739
537,6.141,0.0662051292432694
538,6.149,0.0653289071022236
539,6.156,0.0578508043467467
540,6.164,0.0722329332825326
541,6.171,0.130149202501886
542,6.179,0.165318946370068
543,6.186,0.0990987098485052
544,6.194,0.0753651756487997
545,6.202,0.0621714859388
546,6.209,0.0611290837365214
547,6.217,0.0645181498337847
548,6.224,0.064387220088571
549,6.232,0.0554437113385864
550,6.239,0.0577500891581207
551,6.247,0.0657317678567274
552,6.254,0.085693518242391
553,6.262,0.0679021801716167
554,6.269,0.0607463660197428
555,6.277,0.0579565552948039
556,6.284,0.0583795590870329
557,6.292,0.0617837324625901
558,6.299,0.0509669212041629
559,6.307,0.0545272031220903
560,6.315,0.0436398912316249
561,6.322,0.055640105956407
562,6.330,0.0474569968805485
563,6.337,0.0526539006136476
564,6.345,0.0451606905798768
565,6.352,0.0422852719446058
566,6.360,0.0542401648345063
567,6.367,0.0489878677476629
568,6.375,0.0433276741468844
569,6.382,0.0572867992904414
570,6.390,0.0583493445304451
571,6.397,0.0650670476117961
572,6.405,0.0605600429207848
573,6.413,0.0557206781073078
574,6.420,0.0580371274457047
575,6.428,0.0532179056699529
576,6.435,0.0642764333810824
577,6.443,0.116905155197573
578,6.450,0.31733845208208
579,6.458,0.272354013082299
580,6.465,0.144813333965825
581,6.473,0.0932824077053565
582,6.480,0.0864841324731048
583,6.488,0.0728976535274639
584,6.495,0.0525985072599033
585,6.503,0.0622268792925443
586,6.510,0.0727969383388379
587,6.518,0.0768960465159142
588,6.526,0.0726106152398799
589,6.533,0.0769715829073836
590,6.541,0.0722278975231013
591,6.548,0.0801793616651202
592,6.556,0.0788247423781011
593,6.563,0.0956794291946542
594,6.571,0.0874509982839139
595,6.578,0.0784571319396164
596,6.586,0.083729572064185
597,6.593,0.0884480786513108
598,6.601,0.101082799064436
599,6.608,0.101092870583299
600,6.616,0.105433695213078
601,6.624,0.11922160453597
602,6.631,0.172031613691988
603,6.639,0.302598784226672
604,6.646,0.300811089628561
605,6.654,0.210504815747102
606,6.661,0.175858790859774
607,6.669,0.172087007045732
608,6.676,0.174796245619771
609,6.684,0.157599127161889
610,6.691,0.162267276154702
611,6.699,0.173038765578248
612,6.706,0.164095256828263
613,6.714,0.172328723498435
614,6.721,0.151611609198076
615,6.729,0.18639863534948
616,6.737,0.186000810354408
617,6.744,0.159351571443981
618,6.752,0.116104469447997
619,6.759,0.125768091796657
620,6.767,0.170047524476057
621,6.774,0.162604672036599
622,6.782,0.131785824317058
623,6.789,0.120374793445738
624,6.797,0.114090165675478
625,6.804,0.111174460964757
626,6.812,0.101611553804723
627,6.819,0.117449017216154
628,6.827,0.108988941371574
629,6.835,0.109306194215745
630,6.842,0.110368739455749
631,6.850,0.106692635070902
632,6.857,0.131518929067199
633,6.865,0.131508857548336
634,6.872,0.133820271127302
635,6.880,0.131176497425871
636,6.887,0.150196560797882
637,6.895,0.169352589674538
638,6.902,0.262982464780654
639,6.910,0.280245048111142
640,6.917,0.226120705743556
641,6.925,0.201103052888869
642,6.932,0.22357764723075
643,6.940,0.249778703551792
644,6.948,0.265087412222936
645,6.955,0.281856491129157
646,6.963,0.353736921251499
647,6.970,0.494582076785461
648,6.978,0.847437740136483
649,6.985,3.01165607092525
650,6.993,8.36761426566189
651,7.000,5.51004236181549
652,7.008,1.53491961769723
653,7.015,0.952659933453446
654,7.023,0.809724937755496
655,7.030,0.670481153720686
656,7.038,0.5442900581318
657,7.045,0.491605942961564
658,7.053,0.43554786897236
659,7.061,0.371019647619712
660,7.068,0.350106138701533
661,7.076,0.339682116678747
662,7.083,0.306662642087729
663,7.091,0.290956108421512
664,7.098,0.278779642116634
665,7.106,0.272716587761352
666,7.113,0.249607487731128
667,7.121,0.238740318878387
668,7.128,0.229726309496365
669,7.136,0.220168438095762
670,7.143,0.219901542845903
671,7.151,0.240981231825315
672,7.159,0.215555682456693
673,7.166,0.221538164661075
674,7.174,0.196575905160133
675,7.181,0.176392581359492
676,7.189,0.17230858046071
677,7.196,0.200282224101568
678,7.204,0.192708441916896
679,7.211,0.165273624535187
680,7.219,0.180088828782064
681,7.226,0.25171243517341
682,7.234,0.267882258707306
683,7.241,0.19811684754611
684,7.249,0.184560583157057
685,7.256,0.158117810383313
686,7.264,0.152377044631634
687,7.272,0.149325374416267
688,7.279,0.142985353292264
689,7.287,0.127721966456001
690,7.294,0.12927298036084
691,7.302,0.144430616249046
692,7.309,0.131015353124069
693,7.317,0.128809690493161
694,7.324,0.146641314639386
695,7.332,0.128623367394203
696,7.339,0.124348007637031
697,7.347,0.137400696082955
698,7.354,0.125617019013718
699,7.362,0.119825895667726
700,7.370,0.131267141095634
