#"+EI TIC Scan TCM-PP.d "
#Point,X(Minutes),Y(Counts)
0,2.095,0.138286039209865
1,2.102,0.112082836953062
2,2.110,0.10408191851916
3,2.117,0.101022286445554
4,2.125,0.109975695169206
5,2.132,0.105936358797572
6,2.140,0.0938766654146927
7,2.147,0.0783802315577761
8,2.155,0.0855141894422322
9,2.162,0.0837141771803776
10,2.170,0.0954395270329768
11,2.178,0.085016561862281
12,2.185,0.0795348830518815
13,2.193,0.088445526905382
14,2.200,0.0720782447835509
15,2.208,0.0753672520697906
16,2.215,0.065558545943097
17,2.223,0.0677473297517884
18,2.230,0.0854753122875485
19,2.238,0.0682255187543977
20,2.245,0.0619118688337674
21,2.253,0.0684587816824998
22,2.260,0.052009857535833
23,2.268,0.0510379286687409
24,2.276,0.0568461755784833
25,2.283,0.053677687471763
26,2.291,0.0721287850846396
27,2.298,0.0411475805172116
28,2.306,0.0399890413076378
29,2.313,0.0508241043179806
30,2.321,0.0506219431136254
31,2.328,0.0566401266586598
32,2.336,0.149933634753097
33,2.343,0.109781309395788
34,2.351,0.0931185608983608
35,2.358,0.0673430073430781
36,2.366,0.0617408093531592
37,2.373,0.0541247747506254
38,2.381,0.0644855364738273
39,2.389,0.0532033861846221
40,2.396,0.15948186394341
41,2.404,0.365355836570861
42,2.411,0.147247223364455
43,2.419,0.0552638753828574
44,2.426,0.0444793526736033
45,2.434,0.048433159304934
46,2.441,0.0642639366921303
47,2.449,0.0554038331397186
48,2.456,0.0580124902189938
49,2.464,0.0595131483897841
50,2.471,0.0470102554435112
51,2.479,0.0646915853936508
52,2.487,0.0633969761426841
53,2.494,0.0365872902728154
54,2.502,0.0385816883080884
55,2.509,0.0493351092935955
56,2.517,0.0337842474201217
57,2.524,0.0431808557071683
58,2.532,0.0419717761965057
59,2.539,0.0555399031811115
60,2.547,0.0456573304605189
61,2.554,0.0340797137957177
62,2.562,0.0454707201180373
63,2.569,0.0863306096905895
64,2.577,0.204762086003497
65,2.584,0.0953073447070523
66,2.592,0.051197325002944
67,2.600,0.0380685098662638
68,2.607,0.0627244013666564
69,2.615,0.0499493683375977
70,2.622,0.0368866443638797
71,2.630,0.0490396429179995
72,2.637,0.0383678639573281
73,2.645,0.0475234338853358
74,2.652,0.0388382775290007
75,2.660,0.0408054615559951
76,2.667,0.0352849055909119
77,2.675,0.0476983810814124
78,2.682,0.0372870790571217
79,2.690,0.05370878919551
80,2.697,0.0463260175210783
81,2.705,0.0327034625199153
82,2.713,0.0456923198997343
83,2.720,0.0468042065236876
84,2.728,0.0682605081936131
85,2.735,0.0645555153522579
86,2.743,0.0698700223975176
87,2.750,0.0417190746910617
88,2.758,0.038091836159074
89,2.765,0.0556370960678207
90,2.773,0.086050694176867
91,2.780,0.0570405613519017
92,2.788,0.0409687456056666
93,2.795,0.0575187503545111
94,2.803,0.0600224391161403
95,2.811,0.0577364624207397
96,2.818,0.0394136594183192
97,2.826,0.0350477549473415
98,2.833,0.0477450336670328
99,2.841,0.038535035722468
100,2.848,0.0379479906867443
101,2.856,0.0565856986421026
102,2.863,0.0723426094353999
103,2.871,0.0465359541563702
104,2.878,0.0580358165118041
105,2.886,0.0635447093304821
106,2.893,0.0531217441597863
107,2.901,0.0674090985060404
108,2.908,0.0504469959175489
109,2.916,0.0526241165798352
110,2.924,0.0598552673510005
111,2.931,0.0510962444007664
112,2.939,0.0431730802762315
113,2.946,0.0392698139459896
114,2.954,0.108245661785782
115,2.961,3.00718679193767
116,2.969,26.7037767250795
117,2.976,73.7254426134903
118,2.984,100
119,2.991,5.07575855063168
120,2.999,0.140641994783697
121,3.006,0.0892891611620179
122,3.014,0.0879790010491778
123,3.022,0.0814865162170025
124,3.029,0.0595170361052524
125,3.037,0.0627555030904033
126,3.044,0.0746285861308005
127,3.052,0.0609399399666753
128,3.059,0.0651075709487662
129,3.067,0.0640151229021547
130,3.074,0.0478694405620206
131,3.082,0.0348378183120496
132,3.089,0.0477022687968807
133,3.097,0.0421894882627343
134,3.104,0.0320075614510774
135,3.112,0.0352615792981017
136,3.119,0.057371017166713
137,3.127,0.0632103658002025
138,3.135,0.0664954853709738
139,3.142,0.0364784342397011
140,3.150,0.0183266907178888
141,3.157,0.0443549457786155
142,3.165,0.0526280042953036
143,3.172,0.0382279062004669
144,3.180,0.0476322899184501
145,3.187,0.0407315949620961
146,3.195,0.0149754799841552
147,3.202,0.024617014345709
148,3.210,0.0200644995322495
149,3.217,0.041901797318075
150,3.225,0.0362296204497255
151,3.233,0.0317742985229753
152,3.240,0.0402728445368287
153,3.248,0.0407043809538176
154,3.255,0.0385661374462149
155,3.263,0.0556954117998463
156,3.270,0.0213435579213427
157,3.278,0.0233029665174004
158,3.285,0.0342429978453892
159,3.293,0.0211025195623039
160,3.300,0.0230075001418044
161,3.308,0.0332360795390818
162,3.315,0.049615024807318
163,3.323,0.0297799004877022
164,3.330,0.013875256506607
165,3.338,0.0228053389374493
166,3.346,0.0191469986817146
167,3.353,0.0124562403606525
168,3.361,0.0163711698372995
169,3.368,0.0212891299047856
170,3.376,0.0259427253204226
171,3.383,0.0216856768825592
172,3.391,0.0215029542555458
173,3.398,0.0155197601497268
174,3.406,0.00331622129451828
175,3.413,0
176,3.421,0.0116592586896369
177,3.428,0.0237150643570475
178,3.436,0.0147772064952684
179,3.444,0.0277349621513404
180,3.451,0.0337725842737166
181,3.459,0.0154614444177013
182,3.466,0.0202433344437945
183,3.474,0.0186882482564471
184,3.481,0.0402806199677654
185,3.489,0.0835470054152378
186,3.496,0.0702238045051391
187,3.504,0.0179962349030775
188,3.511,0.0281664985683293
189,3.519,0.00653524970232735
190,3.526,0.0219811432581552
191,3.534,0.013875256506607
192,3.541,0.00239872044398333
193,3.549,0.0229647352716524
194,3.557,0.0175141581849998
195,3.564,0.0202783238830098
196,3.572,0.0313583129678598
197,3.579,0.0211336212860508
198,3.587,0.0204999236647068
199,3.594,0.0173547618507967
200,3.602,0.0161184683318555
201,3.609,0.0186377079553583
202,3.617,0.0159590719976524
203,3.624,0.0195474333749565
204,3.632,0.00867349320992999
205,3.639,0.0100691830630743
206,3.647,0.00261254479474359
207,3.654,0.0209197969352906
208,3.662,0.0220161326973705
209,3.670,0.0134825972443017
210,3.677,0.0171759269392518
211,3.685,0.0212074878799498
212,3.692,0.0189059603226757
213,3.700,0.0113715677449777
214,3.707,0.0104851686181897
215,3.715,0.0304097103935779
216,3.722,0.013696421595062
217,3.730,0.0142329263296969
218,3.737,0.0242710076690242
219,3.745,0.0296166164380308
220,3.752,0.0129033276395148
221,3.760,0.00788039925438283
222,3.768,0.0187621148503461
223,3.775,0.021526280548356
224,3.783,0.0197923594494637
225,3.790,0.0159551842821841
226,3.798,0.00848299515197993
227,3.805,0.0180078980494826
228,3.813,0.0138130530591131
229,3.820,0.0276377692646312
230,3.828,0.0229375212633738
231,3.835,0.0124562403606525
232,3.843,0.016091254323577
233,3.850,0.0155625250198789
234,3.858,0.00930719083127404
235,3.865,0.0297332479020818
236,3.873,0.0316926564981395
237,3.881,0.047472893584247
238,3.888,0.0375242297006922
239,3.896,0.0108933787423684
240,3.903,0.0100925093558845
241,3.911,0.00740221025177351
242,3.918,0.0176813299501397
243,3.926,0.0105395966347468
244,3.933,0.0200528363858444
245,3.941,0.0205582393967323
246,3.948,0.0257016869613837
247,3.956,0.0226420548877778
248,3.963,0.0358097471791417
249,3.971,0.0695939945992634
250,3.979,0.0524025167981382
251,3.986,0.0243409865474548
252,3.994,0.0215418314102295
253,4.001,0.0297604619103604
254,4.009,0.0458400530875323
255,4.016,0.0280304285269364
256,4.024,0.00708730529883566
257,4.031,0.0162856400969954
258,4.039,0.0223038236420297
259,4.046,0.0345967799530107
260,4.054,0.0288507364907622
261,4.061,0.0123512720430065
262,4.069,0.0179456946019887
263,4.076,0.0333216092793859
264,4.084,0.034219671552579
265,4.092,0.0523014361959606
266,4.099,0.0557070749462514
267,4.107,0.0243332111165181
268,4.114,0.017420853013759
269,4.122,0.0144467506804571
270,4.129,0.0172886706878344
271,4.137,0.0250641016245713
272,4.144,0.0250563261936346
273,4.152,0.0168260325470986
274,4.159,0.0257211255387256
275,4.167,0.0268135735853371
276,4.174,0.0282870177478488
277,4.182,0.0278321550380497
278,4.190,0.0141007440037723
279,4.197,0.0103607617232019
280,4.205,0.00887176669881678
281,4.212,0.0133970675039976
282,4.220,0.0187660025658145
283,4.227,0.0168143694006935
284,4.235,0.00655857599513756
285,4.242,0.0202161204355159
286,4.250,0.0059870818212874
287,4.257,0.00896118415458925
288,4.265,0.0189098480381441
289,4.272,0.0103257722839866
290,4.280,0.00237539415117312
291,4.287,0.0192830687231075
292,4.295,0.0165266784560342
293,4.303,0.0160212754451463
294,4.310,0.0124951175153362
295,4.318,0.00959876949140168
296,4.325,0.00113521291676358
297,4.333,0.0117992164464982
298,4.340,0.0157841248015759
299,4.348,0.011480423778092
300,4.355,0.0176385650799876
301,4.363,0.00370110512588675
302,4.370,0.0186532588172318
303,4.378,0.0124990052308045
304,4.385,0.010267456551961
305,4.393,0.0156947073458034
306,4.400,0.00906226475676683
307,4.408,0.0191158969579676
308,4.416,0.1003652625314
309,4.423,0.149276610838943
310,4.431,0.0601468460111281
311,4.438,0.0320386631748243
312,4.446,0.0233807208267678
313,4.453,0.00683071607792335
314,4.461,0.0137741759044294
315,4.468,0.0216506874433438
316,4.476,0.0194269141954371
317,4.483,0.0197573700102484
318,4.491,0.00813698847529514
319,4.498,0.00459527968361149
320,4.506,0.0118847461868023
321,4.514,0.0238822361221873
322,4.521,0.0180778769279132
323,4.529,0.0098786850051242
324,4.536,0.0173547618507967
325,4.544,0.0140696422800254
326,4.551,0.0159629597131208
327,4.559,0.0202627730211363
328,4.566,0.0190264795021951
329,4.574,0.0215068419710142
330,4.581,0.0144234243876469
331,4.589,0.0199789697919454
332,4.596,0.0147033399013694
333,4.604,0.027793277883366
334,4.611,0.031855940547811
335,4.619,0.0295310866977267
336,4.627,0.0287107787339009
337,4.634,0.0222843850646879
338,4.642,0.0256472589448266
339,4.649,0.0285552701151662
340,4.657,0.0131949062996425
341,4.664,0.0162662015196535
342,4.672,0.018972051485638
343,4.679,0.00676462491496108
344,4.687,0.0188904094608022
345,4.694,0.0235984328929964
346,4.702,0.0157374722159554
347,4.709,0.0209586740899743
348,4.717,0.0204221693553394
349,4.725,0.0257949921326246
350,4.732,0.0384922708523159
351,4.740,0.0557653906782769
352,4.747,0.0326879116580418
353,4.755,0.0280654179661518
354,4.762,0.0253284662764204
355,4.770,0.0220472344211174
356,4.777,0.031043408014922
357,4.785,0.0275366886624537
358,4.792,0.0264403529003738
359,4.800,0.0228170020838544
360,4.807,0.0207798391784293
361,4.815,0.0277893901678976
362,4.822,0.0292045185983837
363,4.830,0.0374814648305401
364,4.838,0.0394330979956611
365,4.845,0.0213241193440009
366,4.853,0.0229141949705636
367,4.860,0.0217012277444326
368,4.868,0.0112277222726481
369,4.875,0.0199595312146036
370,4.883,0.0206904217226568
371,4.890,0.0202511098747312
372,4.898,0.0344140573259974
373,4.905,0.0441139074195767
374,4.913,0.0366650445821827
375,4.920,0.00798147985656041
376,4.928,0.0183266907178888
377,4.936,0.0014656687315749
378,4.943,0.0381579273220362
379,4.951,0.0195279947976147
380,4.958,0.0212580281810386
381,4.966,0.0213241193440009
382,4.973,0.0185949430852062
383,4.981,0.0179729086102673
384,4.988,0.0199556434991352
385,4.996,0.0126039735484505
386,5.003,0.0209508986590375
387,5.011,0.0353432213229375
388,5.018,0.0468547468247764
389,5.026,0.033850338583084
390,5.033,0.0195046685048045
391,5.041,0.0123046194573861
392,5.049,0.0225098725618533
393,5.056,0.0235478925919076
394,5.064,0.0301297948798554
395,5.071,0.0216856768825592
396,5.079,0.0122657423027024
397,5.086,0.0124834543689311
398,5.094,0.0219655923962817
399,5.101,0.0251962839504959
400,5.109,0.0150882237327379
401,5.116,0.0238666852603138
402,5.124,0.0183305784333572
403,5.131,0.0124523526451841
404,5.139,0.00707564215243056
405,5.147,0.0181439680908755
406,5.154,0.0262731811352339
407,5.162,0.013253222031668
408,5.169,0.0140191019789366
409,5.177,0.025207947096901
410,5.184,0.00909336648051378
411,5.192,0.0164217101383883
412,5.199,0.0239872044398333
413,5.207,0.0158852054037534
414,5.214,0.00760825917159704
415,5.222,0.0153603638155237
416,5.229,0.0243370988319864
417,5.237,0.0182489364085215
418,5.244,0.0279526742175691
419,5.252,0.0122424160098922
420,5.260,0.0181439680908755
421,5.267,0.016386720699173
422,5.275,0.0225681882938788
423,5.282,0.0257561149779409
424,5.290,0.00983980785044052
425,5.297,0.0136925338795936
426,5.305,0.0250835402019132
427,5.312,0.0256472589448266
428,5.320,0.0202822115984781
429,5.327,0.0155119847187901
430,5.335,0.0246831055086712
431,5.342,0.0121957634242718
432,5.350,0.0188437568751818
433,5.357,0.021378547360558
434,5.365,0.00858018803868914
435,5.373,0.0067257477602774
436,5.380,0.0128916644931097
437,5.388,0.0292511711840041
438,5.395,0.013062723973718
439,5.403,0.00696678611931624
440,5.410,0.0337920228510585
441,5.418,0.0143262315009377
442,5.425,0.0336015247931084
443,5.433,0.0244342917186956
444,5.440,0.0124251386369055
445,5.448,0.0245081583125946
446,5.455,0.0165461170333761
447,5.463,0.021156947578861
448,5.471,0.0164955767322873
449,5.478,0.0230308264346146
450,5.486,0.0314671690009741
451,5.493,0.0279798882258477
452,5.501,0.0344995870663015
453,5.508,0.023921113276871
454,5.516,0.0352032635660762
455,5.523,0.0228597669540064
456,5.531,0.025546178342649
457,5.538,0.0338581140140207
458,5.546,0.0260593567844736
459,5.553,0.0282403651622283
460,5.561,0.0228753178158799
461,5.568,0.0262887319971074
462,5.576,0.0211064072777723
463,5.584,0.0267474824223749
464,5.591,0.0215690454185081
465,5.599,0.0130666116891863
466,5.606,0.0221794167470419
467,5.614,0.0220705607139276
468,5.621,0.0432508345855989
469,5.629,0.0320192245974825
470,5.636,0.0184355467510031
471,5.644,0.0339786331935402
472,5.651,0.0280731933970885
473,5.659,0.0265764229417666
474,5.666,0.0287379927421795
475,5.674,0.0450430714165167
476,5.682,0.0241038359038843
477,5.689,0.016903786856466
478,5.697,0.0372248756096278
479,5.704,0.0230891421666402
480,5.712,0.0146761258930909
481,5.719,0.0335470967765513
482,5.727,0.0387022074876078
483,5.734,0.0575304135009162
484,5.742,0.0391570701974069
485,5.749,0.0310200817221118
486,5.757,0.0306157593134015
487,5.764,0.0164178224229199
488,5.772,0.0390715404571028
489,5.779,0.0240066430171751
490,5.787,0.0367972269081073
491,5.795,0.0285474946842294
492,5.802,0.0207176357309354
493,5.810,0.0275328009469853
494,5.817,0.0376058717255279
495,5.825,0.0494867301968619
496,5.832,0.0338347877212105
497,5.840,0.0261487742402461
498,5.847,0.0392931402387998
499,5.855,0.023582882031123
500,5.862,0.0359419295050662
501,5.870,0.0457700742091016
502,5.877,0.0369488478113736
503,5.885,0.0282014880075447
504,5.893,0.0267435947069065
505,5.900,0.023699513495174
506,5.908,0.0337531456963748
507,5.915,0.0310084185757067
508,5.923,0.0315099338711262
509,5.930,0.0256044940746745
510,5.938,0.01734698641986
511,5.945,0.0265258826406779
512,5.953,0.0263937003147533
513,5.960,0.0211686107252662
514,5.968,0.0292783851922827
515,5.975,0.0385583620152782
516,5.983,0.0268252367317422
517,5.990,0.0351138461103037
518,5.998,0.0347211868479985
519,6.006,0.0362957116126877
520,6.013,0.0335198827682727
521,6.021,0.0347211868479985
522,6.028,0.0508590937571959
523,6.036,0.043410230919802
524,6.043,0.0473757006975378
525,6.051,0.0351916004196711
526,6.058,0.0448681242204402
527,6.066,0.0400279184623214
528,6.073,0.0340758260802494
529,6.081,0.0272723240106046
530,6.088,0.0469325011341438
531,6.096,0.0290995502807378
532,6.103,0.0367350234606134
533,6.111,0.0282287020158232
534,6.119,0.0487130748186565
535,6.126,0.039790767818751
536,6.134,0.0839318892466062
537,6.141,0.0986352291479757
538,6.149,0.0750562348323211
539,6.156,0.0635563724768872
540,6.164,0.0461938351951538
541,6.171,0.0557148503771881
542,6.179,0.054004255571106
543,6.186,0.0451208257258841
544,6.194,0.0329133991552072
545,6.201,0.0443238440548686
546,6.209,0.0445648824139074
547,6.217,0.0487169625341249
548,6.224,0.0528768180852791
549,6.232,0.044075030264893
550,6.239,0.0472785078108286
551,6.247,0.0497821965724579
552,6.254,0.0355298316654192
553,6.262,0.02694964362673
554,6.269,0.0315332601639364
555,6.277,0.0439778373781838
556,6.284,0.0473057218191072
557,6.292,0.0341224786658698
558,6.299,0.0331349989369042
559,6.307,0.0520448469750483
560,6.314,0.0388927055455579
561,6.322,0.0317587476611018
562,6.330,0.0331272235059675
563,6.337,0.035844736618357
564,6.345,0.0399112869982704
565,6.352,0.0277816147369609
566,6.360,0.0319997860201406
567,6.367,0.0389665721394569
568,6.375,0.0179573577483938
569,6.382,0.0358291857564835
570,6.390,0.0289168276537244
571,6.397,0.033080570920347
572,6.405,0.0510223778068674
573,6.412,0.0515161176713502
574,6.420,0.0654069250398306
575,6.428,0.0536699120408263
576,6.435,0.0367466866070185
577,6.443,0.033302170702044
578,6.450,0.0420456427904047
579,6.458,0.0349505620606323
580,6.465,0.0393320173934835
581,6.473,0.0455329235655312
582,6.480,0.0170320814669221
583,6.488,0.0362568344580041
584,6.495,0.0265142194942728
585,6.503,0.0450469591319851
586,6.510,0.0489580008931638
587,6.518,0.0589572050778074
588,6.525,0.0926598104730934
589,6.533,0.0703832008393422
590,6.541,0.0774938324309881
591,6.548,0.0828938692165519
592,6.556,0.0744380880728505
593,6.563,0.0585140055144134
594,6.571,0.0538759609606498
595,6.578,0.0476983810814124
596,6.586,0.059723085025076
597,6.593,0.0447281664635789
598,6.601,0.0501904066966365
599,6.608,0.0620479388751603
600,6.616,0.0436473815633725
601,6.623,0.0512167635802858
602,6.631,0.0456145655903669
603,6.639,0.0451674783115045
604,6.646,0.0530673161432292
605,6.654,0.0538331960904978
606,6.661,0.0379207766784658
607,6.669,0.0392309367913059
608,6.676,0.0381968044767199
609,6.684,0.0444832403890717
610,6.691,0.0439583988008419
611,6.699,0.022886980962285
612,6.706,0.0264481283313105
613,6.714,0.0394797505812815
614,6.721,0.0277310744358721
615,6.729,0.0186104939470797
616,6.736,0.0324585364454081
617,6.744,0.0359147154967876
618,6.752,0.0385194848605945
619,6.759,0.0301103563025136
620,6.767,0.029387241225397
621,6.774,0.0371782230240074
622,6.782,0.0321436314924703
623,6.789,0.0298148899269176
624,6.797,0.0338464508676156
625,6.804,0.0262965074280441
626,6.812,0.0302425386284381
627,6.819,0.0424305266217731
628,6.827,0.0245003828816579
629,6.834,0.0299548476837788
630,6.842,0.0392892525233314
631,6.849,0.0330572446275368
632,6.857,0.0299937248384625
633,6.865,0.0175724739170253
634,6.872,0.0396508100618897
635,6.880,0.0487325133959984
636,6.887,0.0270701628062494
637,6.895,0.0438767567760062
638,6.902,0.0424110880444313
639,6.910,0.0851759581964841
640,6.917,0.112934246640635
641,6.925,0.09597991948308
642,6.932,0.0643105892777507
643,6.940,0.0427570947211161
644,6.947,0.0483787312883769
645,6.955,0.0488996851611382
646,6.963,0.0576742589732458
647,6.970,0.0421389479616455
648,6.978,0.0379985309878331
649,6.985,0.0484953627524279
650,6.993,0.0249435824450519
651,7.000,0.0371199072919819
652,7.008,0.036466771093296
653,7.015,0.0456417795986455
654,7.023,0.0760359391303499
655,7.030,0.167024031952045
656,7.038,0.200485598988292
657,7.045,0.123586587023964
658,7.053,0.077999235441876
659,7.060,0.0611226625936886
660,7.068,0.0605744947126486
661,7.076,0.0654263636171725
662,7.083,0.0574254451832702
663,7.091,0.0661417032633523
664,7.098,0.0521303767153524
665,7.106,0.0553882822778451
666,7.113,0.0578764201776009
667,7.121,0.0469052871258652
668,7.128,0.0436707078561827
669,7.136,0.0559520010207586
670,7.143,0.0564962811863302
671,7.151,0.0740415410950769
672,7.158,0.108086265451579
673,7.166,0.160628740006579
674,7.174,0.12888554320735
675,7.181,0.102176937939659
676,7.189,0.0933129466717793
677,7.196,0.0888342984522188
678,7.204,0.0743292320397362
679,7.211,0.0818480737555607
680,7.219,0.0823612521973854
681,7.226,0.139467904712249
682,7.234,0.277256316342164
683,7.241,0.282901279202235
684,7.249,0.171607648489251
685,7.256,0.115480700272416
686,7.264,0.108545015876847
687,7.271,0.081175498979533
688,7.279,0.0753283749151069
689,7.287,0.0678795120777129
690,7.294,0.0689836232707296
691,7.302,0.0752583960366762
692,7.309,0.0596647692930504
693,7.317,0.067109744414976
694,7.324,0.0553066402530094
