#"+EI TIC Scan TCM-PEEK-2Day.d "
#Point,X(Minutes),Y(Counts)
0,2.095,0.105900839539565
1,2.102,0.110102916940133
2,2.110,0.102651850401569
3,2.117,0.108308641466061
4,2.125,0.101042790460304
5,2.132,0.0844544243032414
6,2.140,0.0793378452094369
7,2.148,0.0823244456759562
8,2.155,0.0771962906113513
9,2.163,0.0777287852681726
10,2.170,0.133189261373189
11,2.178,0.14647847585212
12,2.185,0.0850795267264663
13,2.193,0.0763859726553189
14,2.200,0.127586491505765
15,2.208,0.126482915622787
16,2.215,0.0762470610057134
17,2.223,0.0865419577042581
18,2.230,0.124183156090429
19,2.238,0.0699728848318627
20,2.245,0.0630928995194544
21,2.253,0.123940060703619
22,2.261,0.120031241229996
23,2.268,0.0708912451820327
24,2.276,0.062598991431968
25,2.283,0.0618002494467361
26,2.291,0.0605114580309513
27,2.298,0.0519722502371434
28,2.306,0.0739588774441553
29,2.313,0.127976215856047
30,2.321,0.0903002895574749
31,2.328,0.0673644327448251
32,2.336,0.0575750201045673
33,2.343,0.0472029502673528
34,2.351,0.0504287874637484
35,2.359,0.056440574966122
36,2.366,0.0580843628197876
37,2.374,0.0525433314632996
38,2.381,0.043452335728003
39,2.389,0.0688345810364839
40,2.396,0.299616993571439
41,2.404,0.330617443375078
42,2.411,0.0875799364193662
43,2.419,0.0755640787284861
44,2.426,0.0761235839838418
45,2.434,0.0562090555501127
46,2.441,0.042819515990911
47,2.449,0.0480016922525848
48,2.456,0.0444362932460423
49,2.464,0.164934431964991
50,2.472,0.34876470693327
51,2.479,0.171783548021931
52,2.487,0.141604992145125
53,2.494,0.0766830892391975
54,2.502,0.0633552881909316
55,2.509,0.0557035714918258
56,2.517,0.0429159824142482
57,2.524,0.046832519201738
58,2.532,0.0521613244268843
59,2.539,0.048557338851007
60,2.547,0.0404155727213483
61,2.554,0.0333966757593345
62,2.562,0.0485226109386056
63,2.570,0.0464620881361232
64,2.577,0.0580187656519184
65,2.585,0.0535465822660063
66,2.592,0.0535813101784077
67,2.600,0.0445327596693795
68,2.607,0.0530835434339878
69,2.615,0.0544263560468415
70,2.622,0.0449572119320631
71,2.630,0.0448260175963245
72,2.637,0.0525857766895679
73,2.645,0.0348591067371263
74,2.652,0.0454819892750174
75,2.660,0.0374289722548289
76,2.667,0.0437880388812164
77,2.675,0.0320692977742148
78,2.683,0.0382971700648636
79,2.690,0.0447527031145883
80,2.698,0.0389878696559579
81,2.705,0.0523079533903568
82,2.713,0.0514667661788565
83,2.720,0.0996498153073152
84,2.728,0.113726195800678
85,2.735,0.0575055642797645
86,2.743,0.0511966601935124
87,2.750,0.0455823143552881
88,2.758,0.055950525535569
89,2.765,0.0560971544990416
90,2.773,0.0608625958118987
91,2.781,0.0492634730698352
92,2.788,0.0458369857128983
93,2.796,0.0470524626469468
94,2.803,0.0562129142070462
95,2.811,0.0543144549957703
96,2.818,0.0590142991407581
97,2.826,0.20821698678792
98,2.833,0.199450118235036
99,2.841,0.069413379576507
100,2.848,0.0436992897717462
101,2.856,0.0530333808938525
102,2.863,0.0507953598724297
103,2.871,0.0466164344134627
104,2.878,0.0459373107931689
105,2.886,0.0545112464993782
106,2.894,0.0659135777378338
107,2.901,0.0561781862946448
108,2.909,0.0569692109660098
109,2.916,0.0528095787917102
110,2.924,0.0602490693594741
111,2.931,0.0615841646584608
112,2.939,0.0496146108507825
113,2.946,0.0432015230273263
114,2.954,0.336278093096504
115,2.961,7.23466148176362
116,2.969,36.2222428960486
117,2.976,76.2058312563791
118,2.984,100
119,2.992,3.94082703288614
120,2.999,0.129230279359431
121,3.007,0.085940007222634
122,3.014,0.0754328843927475
123,3.022,0.0724964464663635
124,3.029,0.0570888293309479
125,3.037,0.0797430041874531
126,3.044,0.0838061699384155
127,3.052,0.0555762358130208
128,3.059,0.059045168396226
129,3.067,0.0797545801582536
130,3.074,0.049483416515044
131,3.082,0.0559119389662342
132,3.089,0.0590490270531595
133,3.097,0.0423140319326241
134,3.105,0.0501393881937368
135,3.112,0.0538514161637518
136,3.120,0.0754753296190159
137,3.127,0.1001089954824
138,3.135,0.0731678527727904
139,3.142,0.0377916860065768
140,3.150,0.0467592047200018
141,3.157,0.0588715288342191
142,3.165,0.0627417617385071
143,3.172,0.0477007170117727
144,3.180,0.053338214791598
145,3.187,0.0452697631436756
146,3.195,0.050093084310535
147,3.202,0.0404387246629492
148,3.210,0.0482062010700596
149,3.218,0.0342147110292338
150,3.225,0.047615826559236
151,3.233,0.0218824434698077
152,3.240,0.0310467536868406
153,3.248,0.0410175232029723
154,3.255,0.105638450868088
155,3.263,0.187160295901879
156,3.270,0.0989166704899526
157,3.278,0.0472955580337565
158,3.285,0.0396322653638503
159,3.293,0.0402187812177404
160,3.300,0.0311084921977764
161,3.308,0.0502860171572094
162,3.316,0.0586554440459438
163,3.323,0.0272845631766903
164,3.331,0.0175568890473682
165,3.338,0.0245603513816481
166,3.346,0.0243365492795058
167,3.353,0.0291405771616978
168,3.361,0.0336436298030777
169,3.368,0.0289553616288904
170,3.376,0.0261809872937128
171,3.383,0.0281952062129933
172,3.391,0.0369890853644114
173,3.398,0.0182167193829946
174,3.406,0.0266208741841304
175,3.413,0.019027037339027
176,3.421,0.0251391499216712
177,3.429,0.0268716868848071
178,3.436,0.0312628384751159
179,3.444,0.0484647310846033
180,3.451,0.272274550540746
181,3.459,0.591165535494956
182,3.466,0.253996092646816
183,3.474,0.0542102712585662
184,3.481,0.0599480941186621
185,3.489,0.113622012063474
186,3.496,0.0546154302365824
187,3.504,0.040650950794291
188,3.511,0.0349864424159313
189,3.519,0.0362983857733171
190,3.527,0.0288396019208857
191,3.534,0.0351446473502043
192,3.542,0.0293335100083721
193,3.549,0.0722572097364873
194,3.557,0.13004831462933
195,3.564,0.0774239513704271
196,3.572,0.0190617652514284
197,3.579,0.0193087192951716
198,3.587,0.0292717714974363
199,3.594,0.0226696094842392
200,3.602,0.0238387825350859
201,3.609,0.0239622595569575
202,3.617,0.0191505143608986
203,3.624,0.0163298361425192
204,3.632,0.0326558136281049
205,3.640,0.0258491427974329
206,3.647,0.0220329310902137
207,3.655,0.0269141321110755
208,3.662,0.0200534400833346
209,3.670,0.0246259485495174
210,3.677,0.0269758706220113
211,3.685,0.0254980050164855
212,3.692,0.0195942599082496
213,3.700,0.0264703865637244
214,3.707,0.0481328865883233
215,3.715,0.0282453687531286
216,3.722,0.015608267295957
217,3.730,0.0173369456021594
218,3.738,0.015916959850636
219,3.745,0.0272266833226879
220,3.753,0.0309850151759048
221,3.760,0.0212341891049818
222,3.768,0.0257951216003641
223,3.775,0.0227583585937094
224,3.783,0.0181858501275267
225,3.790,0.0290171001398262
226,3.798,0.0298428527235925
227,3.805,0.0128956314717153
228,3.813,0.0231017790607898
229,3.820,0.0215197297180599
230,3.828,0.0117650449902034
231,3.835,0.0153883238507482
232,3.843,0.0298852979498608
233,3.851,0.0150950659238032
234,3.858,0.0235918284913427
235,3.866,0.0259147399653022
236,3.873,0.0203659912949471
237,3.881,0.0179929172808523
238,3.888,0.0274389094540298
239,3.896,0.0210451149152409
240,3.903,0.0198334966381259
241,3.911,0.0193704578061074
242,3.918,0.0283379765195323
243,3.926,0.0184366628282034
244,3.933,0.0234606341556041
245,3.941,0.0121431933696852
246,3.948,0.023341015790666
247,3.956,0.0226464575426383
248,3.964,0.0455668797275541
249,3.971,0.0788593717496845
250,3.979,0.0430240248083859
251,3.986,0.0141033910918969
252,3.994,0.0162680976315834
253,4.001,0.0214194046377892
254,4.009,0.0161330446389113
255,4.016,0.0321156016574166
256,4.024,0.0226271642579708
257,4.031,0.0218091289880715
258,4.039,0.029379813891574
259,4.046,0.0203659912949471
260,4.054,0.0195672493097152
261,4.062,0.0236381323745446
262,4.069,0.0105765786546893
263,4.077,0.0239815528416249
264,4.084,0.0422484347647549
265,4.092,0.214251926231895
266,4.099,0.356856310522793
267,4.107,0.171112141715504
268,4.114,0.0413300744145848
269,4.122,0.0135284512088072
270,4.129,0.0251005633523363
271,4.137,0.0152802814566106
272,4.144,0.00944599217317745
273,4.152,0.029688506446253
274,4.159,0.0102408755014759
275,4.167,0.0199878429154654
276,4.175,0.0246645351188522
277,4.182,0.0159285358214365
278,4.190,0.0154886489310189
279,4.197,0.00828067777926422
280,4.205,0.0183054684924648
281,4.212,0.0234953620680055
282,4.220,0.0211415813385781
283,4.227,0.0139683380992248
284,4.235,0.0135477444934747
285,4.242,0.0249577930457973
286,4.250,0.292173644346742
287,4.257,1.15564459963791
288,4.265,0.734402739522946
289,4.273,0.139830009955721
290,4.280,0.0301631212490719
291,4.288,0.0314519126648568
292,4.295,0.0287508528114155
293,4.303,0.0227660759075764
294,4.310,0.0277128740963074
295,4.318,0.0260304996733068
296,4.325,0.0249423584180633
297,4.333,0.0240085634401594
298,4.340,0.0145278433545805
299,4.348,0.0244523089875104
300,4.355,0.0234876447541385
301,4.363,0.0148133839676586
302,4.370,0.0251584432063386
303,4.378,0.0277244500671078
304,4.386,0.0212959276159176
305,4.393,0.00760927147283739
306,4.401,0.0162680976315834
307,4.408,0.0218901607836747
308,4.416,0.0986658577892759
309,4.423,0.110662422195489
310,4.431,0.0428233746478445
311,4.438,0.0211029947692432
312,4.446,0.0332307535111945
313,4.453,0.0249037718487285
314,4.461,0.0132390519387957
315,4.468,0.0188804083755544
316,4.476,0.011278854216584
317,4.484,0.0143194758801722
318,4.491,0.0164378785366568
319,4.499,0.0240664432941617
320,4.506,0.0170552636460148
321,4.514,0.0232715599658632
322,4.521,0.020871475353234
323,4.529,0.0239429662722901
324,4.536,0.0260768035565087
325,4.544,0.0126216668294377
326,4.551,0.0155195181864868
327,4.559,0.0147169175443214
328,4.566,0.0120583029171485
329,4.574,0.0151375111500715
330,4.581,0.00218014116742045
331,4.589,0.0141959988583006
332,4.597,0.0197486061855891
333,4.604,0.00824594986686283
334,4.612,0.0166539633249321
335,4.619,0.00324127182412952
336,4.627,0.010044083997868
337,4.634,0.0150410447267344
338,4.642,0.00827296046539724
339,4.649,0.0116724372237997
340,4.657,0.0240741606080286
341,4.664,0.0139451861576239
342,4.672,0.0260189237025064
343,4.679,0.0134049741869356
344,4.687,0.0120312923186141
345,4.694,0.0140223592962936
346,4.702,0.019787192754924
347,4.710,0.00730829623202536
348,4.717,0.0115528188588616
349,4.725,0.0235571005789413
350,4.732,0.0161137513542439
351,4.740,0.00958104516584951
352,4.747,0.0197331715578552
353,4.755,0.0133663876176008
354,4.762,0.0213885353823213
355,4.770,0.00603108078704099
356,4.777,0.0124171580119628
357,4.785,0.00613912318117864
358,4.792,0.0128531862454469
359,4.800,0.014057087208695
360,4.808,0.0225962950025029
361,4.815,0.0242902453963039
362,4.823,0.018236012667662
363,4.830,0.0629771398114498
364,4.838,0.207456831372023
365,4.845,0.242342948707684
366,4.853,0.0946374199507149
367,4.860,0.0169047760256088
368,4.868,0.0149677302449981
369,4.875,0.0210952774553763
370,4.883,0.0192276874995683
371,4.890,0.00868583675728041
372,4.898,0.0164417371935903
373,4.905,0.0173871081422948
374,4.913,0.0166732566095996
375,4.921,0.0183903589450015
376,4.928,0.019169807645566
377,4.936,0.0148828397924614
378,4.943,0.0209872350612386
379,4.951,0.0218091289880715
380,4.958,0.0130615537198553
381,4.966,0.00608124332717633
382,4.973,0.0127798717637107
383,4.981,0.0151838150332734
384,4.988,0.00877072720981713
385,4.996,0.00590374510823591
386,5.003,0.0166269527263977
387,5.011,0.0109933136035059
388,5.019,0.0149137090479293
389,5.026,0.0114872216909923
390,5.034,0.0146706136611196
391,5.041,0.00780992163337874
392,5.049,0.012536776376901
393,5.056,0.0335047181534721
394,5.064,0.064308376453503
395,5.071,0.0397827529842563
396,5.079,0.0172481964926892
397,5.086,0.00735460011522721
398,5.094,0.0173137936605585
399,5.101,0.0224033621558285
400,5.109,0.0124788965228986
401,5.116,0.0139837727269588
402,5.124,0.0142538787123029
403,5.132,0.0183710656603341
404,5.139,0.00632048005705256
405,5.147,0.00981256458185876
406,5.154,0.0216663586815324
407,5.162,0.00834627494713351
408,5.169,0.0114563524355244
409,5.177,0.0164494545074573
410,5.184,0.0199068111198621
411,5.192,0.00270105985344126
412,5.199,0.00460337772165061
413,5.207,0.0162642389746499
414,5.214,0.0223609169295602
415,5.222,0.0149368609895302
416,5.230,0.0119695538076783
417,5.237,0.011271136902717
418,5.245,0.0107656528444302
419,5.252,0.0175183024780333
420,5.260,0.0154925075879524
421,5.267,0.0168005922884047
422,5.275,0.010669186421093
423,5.282,0.0138448610773532
424,5.290,0.012536776376901
425,5.297,0.0194437722878436
426,5.305,0.016090599412643
427,5.312,0.00819192866979401
428,5.320,0.00728514429042444
429,5.327,0.00898681199809243
430,5.335,0.0164533131643908
431,5.343,0.0153227266828789
432,5.350,0.0165073343614596
433,5.358,0.00336860750293461
434,5.365,0.00572238823236199
435,5.373,0.0137869812233509
436,5.380,0.0143426278217731
437,5.388,0.012837751617713
438,5.395,0.0132390519387957
439,5.403,0.0121702039682196
440,5.410,0.0121046068003504
441,5.418,0.00971223950158809
442,5.425,0.0146127338071172
443,5.433,0.0177189526385747
444,5.441,0.0104801122313521
445,5.448,0.0090292572243608
446,5.456,0.0109007058371022
447,5.463,0.0197331715578552
448,5.471,0.0216702173384659
449,5.478,0.0200148535139998
450,5.486,0.0125020484644996
451,5.493,0.0385634173932743
452,5.501,0.123928484732819
453,5.508,0.176822953977066
454,5.516,0.0898912719225253
455,5.523,0.0314364780371228
456,5.531,0.0162642389746499
457,5.538,0.0101212571365378
458,5.546,0.00983571652345969
459,5.554,0.0133509529898668
460,5.561,0.0224380900682299
461,5.569,0.0157857655148974
462,5.576,0.0142577373692364
463,5.584,0.0116338506544649
464,5.591,0.00736617608602768
465,5.599,0.0168083096022716
466,5.606,0.00979327129719133
467,5.614,0.0168816240840079
468,5.621,0.0121740626251531
469,5.629,0.00968522890305368
470,5.636,0.0136712215153463
471,5.644,0.0210682668568419
472,5.651,0.0120660202310155
473,5.659,0.00625102423224978
474,5.667,0.00255443088996874
475,5.674,0.00798741985231917
476,5.682,0.0039281127582903
477,5.689,0.0208946272948349
478,5.697,0.0179003095144486
479,5.704,0.0133355183621329
480,5.712,0.0114717870632584
481,5.719,0.0183903589450015
482,5.727,0.0231326483162577
483,5.734,0.0115142322895268
484,5.742,0.0143117585663052
485,5.749,0.00943827485931048
486,5.757,0.0143078999093717
487,5.765,0.0161677725513127
488,5.772,0.0212573410465828
489,5.780,0.027203531381087
490,5.787,0.0180546557917881
491,5.795,0.0217589664479361
492,5.802,0.0185910091055429
493,5.810,0.0203003941270778
494,5.817,0.0182630232661964
495,5.825,0.0170475463321479
496,5.832,0.0108621192677674
497,5.840,0.0224882526083653
498,5.847,0.0119772711215453
499,5.855,0.0196945849885203
500,5.862,0.0206206626525573
501,5.870,0.0195633906527817
502,5.878,0.0200765920249356
503,5.885,0.0228316730754457
504,5.893,0.0250233902136666
505,5.900,0.0235918284913427
506,5.908,0.0148056666537916
507,5.915,0.0114717870632584
508,5.923,0.0179929172808523
509,5.930,0.0192354048134353
510,5.938,0.00770187923924109
511,5.945,0.00613912318117864
512,5.953,0.0114679284063249
513,5.960,0.00573010554622897
514,5.968,0.00139297515298899
515,5.976,0.0149137090479293
516,5.983,0.01593239447837
517,5.991,0.0141844228875001
518,5.998,0.0122165078514215
519,6.006,0.0189421468864902
520,6.013,0.0205241962292201
521,6.021,0.0160134262739732
522,6.028,0.00545228224701787
523,6.036,0.00843116539967023
524,6.043,0.0167620057190698
525,6.051,0.00191003518207632
526,6.058,0.0113791792968547
527,6.066,0.0155542460988882
528,6.073,0.0553215644554106
529,6.081,0.105904698196498
530,6.089,0.113166690545322
531,6.096,0.0386753184443454
532,6.104,0.0145857232085828
533,6.111,0.0120853135156829
534,6.119,0.018560139850075
535,6.126,0.0189537228572907
536,6.134,0.0187878006091507
537,6.141,0.0111322252531115
538,6.149,0.01776911517871
539,6.156,0.0149638715880646
540,6.164,0.0107193489612283
541,6.171,0.00672949769200224
542,6.179,0.0118499354427402
543,6.187,0.0172636311204232
544,6.194,0.009893596377462
545,6.202,0.011579829457396
546,6.209,0.015623701923691
547,6.217,0.00977783666945738
548,6.224,0.00715009129775238
549,6.232,0.0291405771616978
550,6.239,0.0441430353190972
551,6.247,0.0302287184169412
552,6.254,0.0160558715002416
553,6.262,0.0188842670324879
554,6.269,0.0100981051949368
555,6.277,0.0290595453660945
556,6.284,0.015623701923691
557,6.292,0.0128570449023804
558,6.300,0.0221757013967528
559,6.307,0.0113868966107217
560,6.315,0.0171324367846846
561,6.322,0.0147709387413902
562,6.330,0.0123515608440936
563,6.337,0.00737775205682814
564,6.345,0.0112209743625817
565,6.352,0.00169009173686753
566,6.360,0.0102408755014759
567,6.367,0.00425223994070325
568,6.375,0.0197833340979905
569,6.382,0.0178848748867147
570,6.390,0.0129033487855823
571,6.397,0.00663688992559854
572,6.405,0.00979327129719133
573,6.413,0.0178925922005816
574,6.420,0.0131850307417269
575,6.428,0.0167195604928014
576,6.435,0.0142114334860345
577,6.443,0.0282260754684612
578,6.450,0.112510718866629
579,6.458,0.192130246032211
580,6.465,0.141848087531935
581,6.473,0.0889960635139562
582,6.480,0.0604574368338825
583,6.488,0.0603879810090797
584,6.495,0.0371087037293495
585,6.503,0.0292987820959707
586,6.511,0.0345465555255138
587,6.518,0.0319728313508776
588,6.526,0.0214772844917915
589,6.533,0.0198450726089263
590,6.541,0.0262234325199812
591,6.548,0.0262427258046486
592,6.556,0.0362173539777139
593,6.563,0.0177343872663086
594,6.571,0.0128917728147818
595,6.578,0.0110396174867078
596,6.586,0.0321773401683524
597,6.593,0.091353702900317
598,6.601,0.110180090078803
599,6.608,0.0578644193745789
600,6.616,0.0128994901286488
601,6.624,0.0107000556765609
602,6.631,0.0161098926973104
603,6.639,0.00638993588185533
604,6.646,0.00771731386697504
605,6.654,0.0136827974861467
606,6.661,0.0145857232085828
607,6.669,0.0219171713822091
608,6.676,0.00647096767745857
609,6.684,0.0146165924640507
610,6.691,0.00636292528332092
611,6.699,0.0152031083179408
612,6.706,0.00162835322593173
613,6.714,0.00167465710913358
614,6.722,0.0188495391200865
615,6.729,0.0101829956474736
616,6.737,0.0138024158510849
617,6.744,0.00554874867035505
618,6.752,0.0114216245231231
619,6.759,0.00978941264025784
620,6.767,0.0139953486977592
621,6.774,0.0161639138943792
622,6.782,0.0163645640549206
623,6.789,0.0186527476164787
624,6.797,0.00826910180846376
625,6.804,0.0206438145941582
626,6.812,0.013138726858525
627,6.819,0.0173639562006938
628,6.827,0.0107656528444302
629,6.835,0.00708449412988309
630,6.842,0.0117689036471369
631,6.850,0.0111245079392445
632,6.857,0.0182745992369969
633,6.865,0
634,6.872,0.00799899582311963
635,6.880,0.0114833630340589
636,6.887,0.012355419501027
637,6.895,0.00601178750237356
638,6.902,0.0325014673507654
639,6.910,0.0608587371549652
640,6.917,0.0567029636375991
641,6.925,0.0451424274648705
642,6.933,0.023175093542526
643,6.940,0.0307303438182946
644,6.948,0.0139413275006904
645,6.955,0.027504506621899
646,6.963,0.0158899492521016
647,6.970,0.0152185429456748
648,6.978,0.0211570159663121
649,6.985,0.0226773267981062
650,6.993,0.0766483613267961
651,7.000,0.176402360371315
652,7.008,0.154450461076705
653,7.015,0.0745299586703115
654,7.023,0.0568071473748033
655,7.030,0.0458292683990313
656,7.038,0.048233211668594
657,7.046,0.036344689656519
658,7.053,0.0305721388840216
659,7.061,0.0433327173630649
660,7.068,0.0833045445370621
661,7.076,0.10494389262006
662,7.083,0.0432748375090625
663,7.091,0.034010202211759
664,7.098,0.0187607900106163
665,7.106,0.0240857365788291
666,7.113,0.0175646063612352
667,7.121,0.0161947831498471
668,7.128,0.00909871304916357
669,7.136,0.0119695538076783
670,7.144,0.0241629097174989
671,7.151,0.0123438435302266
672,7.159,0.0321811988252859
673,7.166,0.0209756590904382
674,7.174,0.0258491427974329
675,7.181,0.0199839842585319
676,7.189,0.0286080825048765
677,7.196,0.0148944157632618
678,7.204,0.0218978780975417
679,7.211,0.0267404925490685
680,7.219,0.0278749376875138
681,7.226,0.0384553749991366
682,7.234,0.0446986819175194
683,7.241,0.0319728313508776
684,7.249,0.0357080112624935
685,7.257,0.0346468806057844
686,7.264,0.0391730851887653
687,7.272,0.032933636927316
688,7.279,0.0263160402863849
689,7.287,0.0276318423007041
690,7.294,0.0218631501851403
691,7.302,0.0267096232936006
692,7.309,0.0185099773099396
693,7.317,0.0218399982435394
