#"+EI TIC Scan TOL-PEEK.d "
#Point,X(Minutes),Y(Counts)
0,2.095,0.0787875453400609
1,2.102,0.0762139480887287
2,2.110,0.0768614717561312
3,2.117,0.0640512264634427
4,2.125,0.0849369580030997
5,2.133,0.0607146236167636
6,2.140,0.0615601163034994
7,2.148,0.0571429325596264
8,2.155,0.0586895655231674
9,2.163,0.0525896451149618
10,2.170,0.0628097957380405
11,2.178,0.0635810500425262
12,2.185,0.0524906606052952
13,2.193,0.0562438232634879
14,2.200,0.0605290276611387
15,2.208,0.0605414007248471
16,2.215,0.0569779583768487
17,2.223,0.0564665384102378
18,2.230,0.0705470849103147
19,2.238,0.118608188708029
20,2.246,0.0803506757218796
21,2.253,0.0560087350530297
22,2.261,0.0586483219774729
23,2.268,0.0726793762227165
24,2.276,0.0666784403241776
25,2.283,0.0775131197781031
26,2.291,0.0608837221541108
27,2.298,0.0423364996553277
28,2.306,0.0462546364962981
29,2.313,0.043392334425105
30,2.321,0.0389545289083848
31,2.328,0.0395236898389679
32,2.336,0.0517606498465039
33,2.344,0.0413714006860781
34,2.351,0.0611146860099996
35,2.359,0.0678786275038853
36,2.366,0.0557324032968771
37,2.374,0.0522308262674203
38,2.381,0.051360587453268
39,2.389,0.0305985865506942
40,2.396,0.0354405788152198
41,2.404,0.0418498258161335
42,2.411,0.0527298731703229
43,2.419,0.0642945633830398
44,2.426,0.0455906154106179
45,2.434,0.0640553508180121
46,2.441,0.261125260855116
47,2.449,0.401208963806232
48,2.457,0.0883148043954731
49,2.464,0.047269227720381
50,2.472,0.0438996300371464
51,2.479,0.0417178464699113
52,2.487,0.0312048666724023
53,2.494,0.0216074935893095
54,2.502,0.0478466373601029
55,2.509,0.0720359769098834
56,2.517,0.0781565190909362
57,2.524,0.0711863598685783
58,2.532,0.0875353013818485
59,2.539,0.0552704755850995
60,2.547,0.0419900538714945
61,2.554,0.0366696364769136
62,2.562,0.0475414351219642
63,2.570,0.0353250968872754
64,2.577,0.0427654325305497
65,2.585,0.0378863210748992
66,2.592,0.0431613705692162
67,2.600,0.0479827410608945
68,2.607,0.039767026758565
69,2.615,0.0423818675555916
70,2.622,0.0365665276126776
71,2.630,0.029394275016417
72,2.637,0.0483951765178388
73,2.645,0.0678580057310381
74,2.652,0.0560376055350158
75,2.660,0.0449595891614931
76,2.668,0.0350281433582755
77,2.675,0.0371893051526634
78,2.683,0.0328628572093182
79,2.690,0.0452812888179097
80,2.698,0.0421385306359944
81,2.705,0.0398907573956483
82,2.713,0.0454173925187013
83,2.720,0.0429963963864385
84,2.728,0.0317905250212631
85,2.735,0.0489024721298802
86,2.743,0.0303016330216944
87,2.750,0.0642904390284703
88,2.758,0.0676559123571354
89,2.765,0.0523380594862259
90,2.773,0.0452606670450625
91,2.781,0.0467866782357562
92,2.788,0.0431861166966329
93,2.796,0.0860216632548631
94,2.803,0.0769769536840756
95,2.811,0.0396845396671761
96,2.818,0.0400804777058426
97,2.826,0.0407156283095368
98,2.833,0.046617579698409
99,2.841,0.0445966459593822
100,2.848,0.0436356713447021
101,2.856,0.0402619493068981
102,2.863,0.0459618073218677
103,2.871,0.0502923796197823
104,2.879,0.0336176140955262
105,2.886,0.0354900710700531
106,2.894,0.0435573086078827
107,2.901,0.0501604002735602
108,2.909,0.0396845396671761
109,2.916,0.0454008951004235
110,2.924,0.0569862070859876
111,2.931,0.0471331240195894
112,2.939,0.0391360005094403
113,2.946,0.0599928615671112
114,2.954,0.0390988813183153
115,2.961,0.035564309452303
116,2.969,0.0608218568355692
117,2.976,1.82728291892781
118,2.984,20.4982525522125
119,2.992,60.7134275539385
120,2.999,100
121,3.007,32.8468629622979
122,3.014,0.196966801172867
123,3.022,0.102040656402578
124,3.029,0.0765645182271313
125,3.037,0.0660309166567751
126,3.044,0.0528041115525729
127,3.052,0.0631191223307487
128,3.059,0.0912554692034857
129,3.067,0.079711400763616
130,3.074,0.0665299635596776
131,3.082,0.0634490706963041
132,3.090,0.0537073452032808
133,3.097,0.0409795870019811
134,3.105,0.0556870353966132
135,3.112,0.057279036260418
136,3.120,0.0328133649544849
137,3.127,0.0636635371339151
138,3.135,0.0782884984371583
139,3.142,0.0834480660035309
140,3.150,0.0916349098238744
141,3.157,0.0560087350530297
142,3.165,0.0376924764101354
143,3.172,0.0544249828983638
144,3.180,0.062702562519235
145,3.187,0.0428437952673691
146,3.195,0.0620344170789853
147,3.203,0.0502305143012407
148,3.210,0.0320586080682769
149,3.218,0.0410332036113838
150,3.225,0.0371068180612745
151,3.233,0.030755312024333
152,3.240,0.0356509208982613
153,3.248,0.024659515970697
154,3.255,0.0213311618331568
155,3.263,0.0432232358877578
156,3.270,0.068480783271024
157,3.278,0.0446873817599099
158,3.285,0.0398165190133983
159,3.293,0.0251998064192939
160,3.300,0.0311512500629995
161,3.308,0.0583554928030425
162,3.316,0.0611311834282773
163,3.323,0.056346932127724
164,3.331,0.0352013662501921
165,3.338,0.0299098193375973
166,3.346,0.0268248021196543
167,3.353,0.0239954948850167
168,3.361,0.0188029324820885
169,3.368,0.0143403808379517
170,3.376,0.028350813310348
171,3.383,0.0247749978986413
172,3.391,0.019273108903005
173,3.398,0.0198546428972964
174,3.406,0.0227169449684895
175,3.414,0.0280786059087648
176,3.421,0.0204403012461572
177,3.429,0.00388101764984543
178,3.436,0.0187163210361303
179,3.444,0.0137217276525353
180,3.451,0.0379316889751631
181,3.459,0.167329189236853
182,3.466,0.258312451038756
183,3.474,0.107031125431603
184,3.481,0.0445265319317017
185,3.489,0.0595309338553336
186,3.496,0.103051123272091
187,3.504,0.0429015362313413
188,3.511,0.0219993072734065
189,3.519,0.0169593459895477
190,3.527,0.0172521751639782
191,3.534,0.0147115727492015
192,3.542,0.00963449227421778
193,3.549,0.0215167577887817
194,3.557,0.0334980078130123
195,3.564,0.0432356089514662
196,3.572,0.0186503313630192
197,3.579,0.0216074935893095
198,3.587,0.0328669815638876
199,3.594,0.0186874505541442
200,3.602,0.0246636403252664
201,3.609,0.022972654951795
202,3.617,0.0198917620884214
203,3.625,0.0127318825558691
204,3.632,0.0145713446938405
205,3.640,0.0248203657989052
206,3.647,0.0184647354073943
207,3.655,0.00919731068985687
208,3.662,0.0322813232150268
209,3.670,0.0250802001367801
210,3.677,0.023541815882378
211,3.685,0.0253730293112105
212,3.692,0.0120926075976055
213,3.700,0.0188977926371857
214,3.707,0.0135814995971743
215,3.715,0.0256328636490854
216,3.722,0.0179986833410473
217,3.730,0.0216611101987122
218,3.738,0.0214837629522262
219,3.745,0.0206011510743655
220,3.753,0.015218868361243
221,3.760,0.0205722805923794
222,3.768,0.026989776302432
223,3.775,0.0226633283590868
224,3.783,0.0156807960730205
225,3.790,0.0177017298120474
226,3.798,0.0173264135462281
227,3.805,0.0159983713748676
228,3.813,0.0089580981248292
229,3.820,0.0151899978792569
230,3.828,0.0202547052905323
231,3.836,0.0105212285066479
232,3.843,0.0249647182088357
233,3.851,0.0172810456459642
234,3.858,0.0291633111605282
235,3.866,0.0182213984877971
236,3.873,0.015973625247451
237,3.881,0.0143568782562295
238,3.888,0.0198876377338519
239,3.896,0.0183080099337554
240,3.903,0.0108841717087589
241,3.911,0.0151611273972708
242,3.918,0.0181347870418389
243,3.926,0.01087592299962
244,3.933,0.0232613597716559
245,3.941,0.00371604346706773
246,3.949,0.0220487995282398
247,3.956,0.0203124462545045
248,3.964,0.0320379862954297
249,3.971,0.0756654089309929
250,3.979,0.048807611974783
251,3.986,0.0205475344649627
252,3.994,0.02537715366578
253,4.001,0.0117296643954946
254,4.009,0.0160602366934093
255,4.016,0.020848612348532
256,4.024,0.0234758262092669
257,4.031,0.0255792470396826
258,4.039,0.0184234918616998
259,4.047,0.0150910133695903
260,4.054,0.0145713446938405
261,4.062,0.021714726808115
262,4.069,0.0151776248155486
263,4.077,0.0197556583876298
264,4.084,0.026663952291446
265,4.092,0.0391442492185792
266,4.099,0.0369830874241913
267,4.107,0.0189514092465885
268,4.114,0.0195205701771715
269,4.122,0.0187163210361303
270,4.129,0.0196525495233937
271,4.137,0.0194050882492272
272,4.144,0.0261030400700018
273,4.152,0.0254018997931966
274,4.160,0.0217394729355316
275,4.167,0.00704027325003842
276,4.175,0.0126823903010358
277,4.182,0.0152477388432291
278,4.190,0.0114574569939114
279,4.197,0.016579905369159
280,4.205,0.0215992448801706
281,4.212,0.0200814823986157
282,4.220,0.0140681734363685
283,4.227,0.0137382250708131
284,4.235,0.0295386274263475
285,4.242,0.0280621084904871
286,4.250,0.139229961555241
287,4.257,0.455963895070151
288,4.265,0.323246289380059
289,4.273,0.059972239794264
290,4.280,0.0254720138208771
291,4.288,0.0299180680467362
292,4.295,0.0169263511529922
293,4.303,0.0167366308427978
294,4.310,0.0204279281824489
295,4.318,0.0167036360062423
296,4.325,0.016579905369159
297,4.333,0.0108223063902172
298,4.340,0.0160849828208259
299,4.348,0.0190009015014218
300,4.355,0.0224034940212119
301,4.363,0.0179821859227695
302,4.371,0.00784039803651027
303,4.378,0.0190627668199634
304,4.386,0.00993557015778708
305,4.393,0.0144599871204655
306,4.401,0.0157962780009649
307,4.408,0.0448935994883821
308,4.416,0.134647803628591
309,4.423,0.142393341510004
310,4.431,0.0438295160094659
311,4.438,0.0226344578771007
312,4.446,0.00934166309978736
313,4.453,0.00911482359846802
314,4.461,0.0184028700888526
315,4.468,0.0248574849900302
316,4.476,0.00656184811998308
317,4.484,0.0103645030330091
318,4.491,0.0196937930690881
319,4.499,0.0270928851666681
320,4.506,0.0206300215563516
321,4.514,0.0186255852356025
322,4.521,0.0136268674974382
323,4.529,0.0247048838709608
324,4.536,0.0128721106112302
325,4.544,0.0308130529883052
326,4.551,0.027958999626251
327,4.559,0.0155240705993817
328,4.566,0.0174666416015892
329,4.574,0.0185637199170609
330,4.582,0.0228654217329895
331,4.589,0.00965923840163443
332,4.597,0.0202134617448379
333,4.604,0.0137505981345214
334,4.612,0.0124720482179942
335,4.619,0.0149920288599236
336,4.627,0.0230510176886144
337,4.634,0.0082693309117323
338,4.642,0.00941177712746788
339,4.649,0.01686861018902
340,4.657,0.020316570609074
341,4.664,0.0122122138801194
342,4.672,0.0134000279961188
343,4.679,0.00898284425224585
344,4.687,0.0113667211933836
345,4.695,0.0136846084614104
346,4.702,0.0215621256890456
347,4.710,0.0177347246486029
348,4.717,0.0182997612246166
349,4.725,0.0109584100910088
350,4.732,0.0207991200936987
351,4.740,0.020531037046685
352,4.747,0.0175656261112558
353,4.755,0.0209104776670737
354,4.762,0.0260246773331824
355,4.770,0.0211785607140875
356,4.777,0.0153054798072013
357,4.785,0.0303140060854027
358,4.793,0.0249234746631413
359,4.800,0.0192937306758522
360,4.808,0.0132268051042022
361,4.815,0.0202382078722546
362,4.823,0.021285793932893
363,4.830,0.00751044967095487
364,4.838,0.0214383950519623
365,4.845,0.0286147720027924
366,4.853,0.0120926075976055
367,4.860,0.0202505809359629
368,4.868,0.0140846708546463
369,4.875,0.0236655465194613
370,4.883,0.0160808584662565
371,4.890,0.0132845460681744
372,4.898,0.00439243761645631
373,4.906,0.0176068696569502
374,4.913,0.0202547052905323
375,4.921,0.0156684230093122
376,4.928,0.0177594707760196
377,4.936,0.0189679066648662
378,4.943,0.0151858735246874
379,4.951,0.0195329432408799
380,4.958,0.0395113167752595
381,4.966,0.0409465921654256
382,4.973,0.0208733584759487
383,4.981,0.0198257724153103
384,4.988,0.0194380830857827
385,4.996,0.0144806088933128
386,5.003,0.013494888151216
387,5.011,0.0302645138305694
388,5.019,0.0301242857752083
389,5.026,0.0291880572879449
390,5.034,0.015144629978993
391,5.041,0.019095761656519
392,5.049,0.0454421386461179
393,5.056,0.0860051658365853
394,5.064,0.0849658284850858
395,5.071,0.0378450775292048
396,5.079,0.0267629368011126
397,5.086,0.0170335843717977
398,5.094,0.0205227883375461
399,5.101,0.0202753270633795
400,5.109,0.0223622504755175
401,5.117,0.0233685929904614
402,5.124,0.0194422074403521
403,5.132,0.012199840816411
404,5.139,0.0244821687242109
405,5.147,0.0095396321191206
406,5.154,0
407,5.162,0.0172398021002698
408,5.169,0.0097623472658705
409,5.177,0.0131608154310911
410,5.184,0.0157261639732844
411,5.192,0.0148682982228404
412,5.199,0.00138578313533269
413,5.207,0.0166871385879645
414,5.214,0.0202670783542406
415,5.222,0.0121709703344249
416,5.230,0.0155240705993817
417,5.237,0.0101459122408287
418,5.245,0.0193267255124077
419,5.252,0.0127277582012997
420,5.260,0.00722174485109389
421,5.267,0.00455328744466457
422,5.275,0.0103232594873147
423,5.282,0.0202753270633795
424,5.290,0.00702790018633009
425,5.297,0.0157839049372566
426,5.305,0.0102283993322175
427,5.312,0.0126988877193136
428,5.320,0.0138908261898825
429,5.328,0.0147321945220488
430,5.335,0.00527917384888645
431,5.343,0.0171985585545754
432,5.350,0.0117915297140362
433,5.358,0.00580296687920566
434,5.365,0.00441718374387296
435,5.373,0.00692891567666347
436,5.380,0.0126823903010358
437,5.388,0.0153425989983263
438,5.395,0.0196030572685604
439,5.403,0.0160932315299648
440,5.410,0.0130577065668551
441,5.418,0.0176522375572141
442,5.425,0.0106160886617451
443,5.433,0.0123895611266054
444,5.441,0.0225066028854479
445,5.448,0.0105294772157868
446,5.456,0.0115316953761613
447,5.463,0.0127236338467302
448,5.471,0.0243378163142804
449,5.478,0.0219415663094343
450,5.486,0.0157385370369927
451,5.493,0.0159406304108954
452,5.501,0.0103974978695646
453,5.508,0.0120802345338972
454,5.516,0.0134247741235355
455,5.523,0.0106449591437312
456,5.531,0.0203536898001989
457,5.539,0.013783592971077
458,5.546,0.00289942126231811
459,5.554,0.00761355853519093
460,5.561,0.0102201506230786
461,5.569,0.0146991996854932
462,5.576,0.00407073796003979
463,5.584,0.009869580484676
464,5.591,0.0125792814367998
465,5.599,0.00745270870698267
466,5.606,0.00181471601055472
467,5.614,0.0172274290365615
468,5.621,0.0122782035532304
469,5.629,0.00927154907210683
470,5.636,0.00526680078517813
471,5.644,0.0171861854908671
472,5.652,0.00240037435941556
473,5.659,0.0012414307254022
474,5.667,0.0065824698928303
475,5.674,0.010409870933273
476,5.682,0.00838893719424613
477,5.689,0.0158457702557982
478,5.697,0.00788989029134358
479,5.704,0.0134165254143966
480,5.712,0.00997681370348151
481,5.719,0.0199618761161019
482,5.727,0.010261394168773
483,5.734,0.0164974182777702
484,5.742,0.010587218179759
485,5.750,0.0212321773234902
486,5.757,0.0168026205159089
487,5.765,0.0138908261898825
488,5.772,0.012488545636272
489,5.780,0.0194174613129355
490,5.787,0.0124431777360081
491,5.795,0.00646286361031646
492,5.802,0.012954597702619
493,5.810,0.0221684058107537
494,5.817,0.0132350538133411
495,5.825,0.0123070740352165
496,5.832,0.00998506241262039
497,5.840,0.0111357573374949
498,5.847,0.0164438016683674
499,5.855,0.022143659683337
500,5.863,0.0141424118186185
501,5.870,0.0169304755075616
502,5.878,0.00731248065162163
503,5.885,0.00996031628520374
504,5.893,0.00714338211427448
505,5.900,0.0140434273089519
506,5.908,0.0202010886811296
507,5.915,0.0155776872087845
508,5.923,0.0105418502794951
509,5.930,0.0116183068221196
510,5.938,0.00911894795303746
511,5.945,0.00443780551672017
512,5.953,0.00438006455274798
513,5.960,0.00233438468630448
514,5.968,0.00919318633528743
515,5.976,0.0138949505444519
516,5.983,0.0099273214486482
517,5.991,0.0130700796305634
518,5.998,0.00465227195433119
519,6.006,0.00545652109537248
520,6.013,0.00968398452905109
521,6.021,0.015973625247451
522,6.028,0.00893335199741254
523,6.036,0.00871888555980153
524,6.043,0.00901996344337084
525,6.051,0.0180687973687278
526,6.058,0.0236614221648919
527,6.066,0.0119152603511195
528,6.074,0.0210919492681292
529,6.081,0.0112182444288837
530,6.089,0.0173552840282142
531,6.096,0.0204485499552961
532,6.104,0.016505666986909
533,6.111,0.0181801549421027
534,6.119,0.0204031820550323
535,6.126,0.0306769492875136
536,6.134,0.0202670783542406
537,6.141,0.0165716566600201
538,6.149,0.0225272246582952
539,6.156,0.0168603614798811
540,6.164,0.0188276786095052
541,6.171,0.0263917448898628
542,6.179,0.0436645418266882
543,6.187,0.0305367212321526
544,6.194,0.021100197977268
545,6.202,0.021500260370504
546,6.209,0.0244821687242109
547,6.217,0.0116100581129808
548,6.224,0.0139733132812713
549,6.232,0.0219333176002954
550,6.239,0.0153797181894512
551,6.247,0.0261154131337102
552,6.254,0.0128803593203691
553,6.262,0.0198587672518658
554,6.269,0.00861577669556547
555,6.277,0.027455828368779
556,6.285,0.0191287564930745
557,6.292,0.00945714502773175
558,6.300,0.0250719514276412
559,6.307,0.0215868718164623
560,6.315,0.0327844944724988
561,6.322,0.0230922612343088
562,6.330,0.0127937478744108
563,6.337,0.015070391596743
564,6.345,0.0128762349657996
565,6.352,0.0161344750756592
566,6.360,0.022321006929823
567,6.367,0.0255091330120021
568,6.375,0.0215621256890456
569,6.382,0.00989432661209266
570,6.390,0.0135402560514799
571,6.398,0.0213394105422957
572,6.405,0.0136392405611465
573,6.413,0.0165386618234646
574,6.420,0.00213229131240179
575,6.428,0.00720112307824668
576,6.435,0.0114863274758975
577,6.443,0.0176316157843669
578,6.450,0.0376058649641771
579,6.458,0.0528865986439617
580,6.465,0.0443533090397851
581,6.473,0.0414868826140225
582,6.480,0.02041967947331
583,6.488,0.0280786059087648
584,6.496,0.0281982121912787
585,6.503,0.0102861402961897
586,6.511,0.0176316157843669
587,6.518,0.0253235370563772
588,6.526,0.0237810284474057
589,6.533,0.0194092126037966
590,6.541,0.0180564243050194
591,6.548,0.0168562371253117
592,6.556,0.0253482831837939
593,6.563,0.0166087758511451
594,6.571,0.0145919664666877
595,6.578,0.0178873257676723
596,6.586,0.0158333971920899
597,6.593,0.0150951377241597
598,6.601,0.0173264135462281
599,6.609,0.0131896859130772
600,6.616,0.00846729993106554
601,6.624,0.0156766717184511
602,6.631,0.0272331132220291
603,6.639,0.0583266223210564
604,6.646,0.0332876657299708
605,6.654,0.0355065684883308
606,6.661,0.030149031902625
607,6.669,0.0173429109645059
608,6.676,0.0245069148516276
609,6.684,0.0277032896429455
610,6.691,0.0121957164618416
611,6.699,0.0193803421218105
612,6.706,0.013383530577841
613,6.714,0.0176687349754918
614,6.722,0.0195741867865743
615,6.729,0.0362572010199694
616,6.737,0.0260535478151685
617,6.744,0.0369830874241913
618,6.752,0.0224777324034619
619,6.759,0.0203124462545045
620,6.767,0.0129216028660635
621,6.774,0.0286642642576257
622,6.782,0.019664922587102
623,6.789,0.0280456110722093
624,6.797,0.0203908089913239
625,6.804,0.0183863726705749
626,6.812,0.00792288512789912
627,6.820,0.0205062909192683
628,6.827,0.00960562179223168
629,6.835,0.0138743287716047
630,6.842,0.0167077603608117
631,6.850,0.00993969451235652
632,6.857,0.0198010262878936
633,6.865,0.0209764673401848
634,6.872,0.0236449247466141
635,6.880,0.0295427517809169
636,6.887,0.0177842169034362
637,6.895,0.0216734832624206
638,6.902,0.0528041115525729
639,6.910,0.048844731165908
640,6.917,0.0472156111109782
641,6.925,0.0383894923323712
642,6.933,0.0325452819074711
643,6.940,0.0205392857558239
644,6.948,0.0172274290365615
645,6.955,0.0222797633841286
646,6.963,0.0310687629716107
647,6.970,0.0228736704421283
648,6.978,0.0319513748494714
649,6.985,0.0192896063212828
650,6.993,0.0269650301750153
651,7.000,0.0354158326878031
652,7.008,0.0327267535085266
653,7.015,0.0299304411104445
654,7.023,0.0404021773622591
655,7.031,0.0581121558834454
656,7.038,0.0565407767924878
657,7.046,0.0309780271710829
658,7.053,0.0270310198481264
659,7.061,0.0266598279368766
660,7.068,0.0264247397264184
661,7.076,0.00943652325488453
662,7.083,0.0246842620981136
663,7.091,0.0336959768323456
664,7.098,0.0191700000387689
665,7.106,0.0225024785308785
666,7.113,0.0217600947083788
667,7.121,0.0242305830954749
668,7.128,0.0304624828499026
669,7.136,0.0257235994496131
670,7.144,0.0190380206925468
671,7.151,0.0234345826635725
672,7.159,0.0326153959351516
673,7.166,0.0392556067919541
674,7.174,0.0280538597813482
675,7.181,0.0191081347202273
676,7.189,0.024296572768586
677,7.196,0.0243873085691137
678,7.204,0.0301160370660694
679,7.211,0.0294726377532364
680,7.219,0.0431077539598134
681,7.226,0.0645502733663452
682,7.234,0.0672104820636357
683,7.242,0.0414580121320364
684,7.249,0.0475249377036864
685,7.257,0.0317369084118604
686,7.264,0.0301325344843472
687,7.272,0.0285281605568341
688,7.279,0.0154580809262706
689,7.287,0.0268041803468071
690,7.294,0.0276991652883761
691,7.302,0.0263298795713212
692,7.309,0.0227623128687534
