#"+EI TIC Scan TOL-SLA.d "
#Point,X(Minutes),Y(Counts)
0,2.095,0.0804541830188995
1,2.102,0.0669356910422545
2,2.110,0.0733289252285778
3,2.117,0.0675548325017112
4,2.125,0.0490216367705718
5,2.133,0.0520865580284347
6,2.140,0.0595059935287745
7,2.148,0.0587363425432621
8,2.155,0.0579051194789087
9,2.163,0.049856280505972
10,2.170,0.04890875462603
11,2.178,0.049425275954085
12,2.185,0.052045509975874
13,2.193,0.0447457979621694
14,2.200,0.0562974040869494
15,2.208,0.0453820427768597
16,2.215,0.0430730898203224
17,2.223,0.0490353194547587
18,2.230,0.265060958068388
19,2.238,0.4255383195543
20,2.246,0.1448380534603
21,2.253,0.0838782747366682
22,2.261,0.0652424588741272
23,2.268,0.0869089892840638
24,2.276,0.0692309613146049
25,2.283,0.0628924578650292
26,2.291,0.057248350637938
27,2.298,0.0460080255784098
28,2.306,0.0408325502847196
29,2.313,0.0432372820305651
30,2.321,0.0365293461079434
31,2.328,0.0311554718935432
32,2.336,0.0407572955216917
33,2.344,0.0511492941616329
34,2.351,0.0489224373102169
35,2.359,0.0509885226224369
36,2.366,0.0513921618059501
37,2.374,0.0515974020687534
38,2.381,0.0357460124382441
39,2.389,0.0355544548596276
40,2.396,0.0358999426353466
41,2.404,0.0254395305744709
42,2.411,0.0367174830155131
43,2.419,0.0385680660517896
44,2.426,0.0361325482665236
45,2.434,0.033471266192174
46,2.441,0.191817549615978
47,2.449,0.38612534775397
48,2.457,0.106010016408959
49,2.464,0.0417732348225681
50,2.472,0.0371313842121664
51,2.479,0.0356912817014965
52,2.487,0.023482906735746
53,2.494,0.0198501540841273
54,2.502,0.0261783955205629
55,2.509,0.059930156738568
56,2.517,0.0848189592745167
57,2.524,0.81929176374246
58,2.532,1.47803433190703
59,2.539,0.395344056224886
60,2.547,0.216302712968414
61,2.554,0.165680202147976
62,2.562,0.148977065426833
63,2.570,0.134842852661778
64,2.577,0.104949608384475
65,2.585,0.100981629970278
66,2.592,0.0906169966987104
67,2.600,0.0793561476129018
68,2.607,0.0783983597198197
69,2.615,0.073339187241718
70,2.622,0.0662481361618634
71,2.630,0.058072732360198
72,2.637,0.151850429106079
73,2.645,0.176523729366085
74,2.652,0.101672605521716
75,2.660,0.0878257291245853
76,2.668,0.0637202602583359
77,2.675,0.108647353785982
78,2.683,0.352746439680058
79,2.690,0.167469213105412
80,2.698,0.0888656131227887
81,2.705,0.122566064275093
82,2.713,0.227416473199213
83,2.720,0.112813731120889
84,2.728,0.0778681557075778
85,2.735,0.0546520613134761
86,2.743,0.057740927268666
87,2.750,0.0709686622063397
88,2.758,0.0856091342863095
89,2.765,0.0713859840740397
90,2.773,0.0523944184226396
91,2.781,0.0616302302487888
92,2.788,0.0453375740532523
93,2.796,0.0698124753925477
94,2.803,0.0828383907384647
95,2.811,0.0602790651853337
96,2.818,0.0484332813505357
97,2.826,0.0569610142700134
98,2.833,0.066118150662088
99,2.841,0.0554935463909697
100,2.848,0.0406136273377294
101,2.856,0.0347677005188816
102,2.863,0.0462406312095869
103,2.871,0.044554240383553
104,2.879,0.0481527863247045
105,2.886,0.0423855349399313
106,2.894,0.0329239588246985
107,2.901,0.0442532213314415
108,2.909,0.0461003836966713
109,2.916,0.0613394732098175
110,2.924,0.0386227967885372
111,2.931,0.0549428183524475
112,2.939,0.0651569420979591
113,2.946,0.0521891781598363
114,2.954,0.0515974020687534
115,2.961,0.0466032223405394
116,2.969,0.0507011862545123
117,2.976,1.14746752329391
118,2.984,16.5648492527373
119,2.992,57.8831177227361
120,2.999,100
121,3.007,66.0536094407784
122,3.014,0.335677291156915
123,3.022,0.0917252941178483
124,3.029,0.0611615983153879
125,3.037,0.0678695342380096
126,3.044,0.05612979120566
127,3.052,0.0497502397035236
128,3.059,0.080313935505984
129,3.067,0.076192026894684
130,3.074,0.0472292051420895
131,3.082,0.0593007532659712
132,3.090,0.0428028568076314
133,3.097,0.0332797086135576
134,3.105,0.0460832803414377
135,3.112,0.0543613042745048
136,3.120,0.0394061304582365
137,3.127,0.0490797881783661
138,3.135,0.064014437968354
139,3.142,0.0786241240089033
140,3.150,0.0797426834411814
141,3.157,0.0498391771507384
142,3.165,0.0287917882002584
143,3.172,0.0495586821249072
144,3.180,0.0607955865133887
145,3.187,0.0423308042031838
146,3.195,0.0557569380615673
147,3.203,0.0451870645271966
148,3.210,0.0344598401246766
149,3.218,0.0176198765616646
150,3.225,0.0282752668722034
151,3.233,0.0231168949337467
152,3.240,0.018882104177905
153,3.248,0.0165799925634611
154,3.255,0.0256071434557603
155,3.263,0.0285694445822215
156,3.270,0.0489498026785907
157,3.278,0.0432030753200978
158,3.285,0.0213586700157317
159,3.293,0.0300984845401062
160,3.300,0.027320899650168
161,3.308,0.0455291316318688
162,3.316,0.0569507522568732
163,3.323,0.056731829309883
164,3.331,0.0346206116638725
165,3.338,0.027136183413645
166,3.346,0.0137237322394483
167,3.353,0.0188136907569706
168,3.361,0.0164294830374054
169,3.368,0.0178353788376081
170,3.376,0.0177327587062064
171,3.383,0.00323253413915221
172,3.391,0.0108606305733421
173,3.398,0.0109153613100896
174,3.406,0.0031059693104235
175,3.414,0.0200588150179773
176,3.421,0.0206300670827799
177,3.429,0.0165902545766013
178,3.436,0.0161626706957611
179,3.444,0.0136861048579344
180,3.451,0.0153724956839683
181,3.459,0.115331345011276
182,3.466,0.247536860296032
183,3.474,0.10587318956709
184,3.481,0.0322500866284943
185,3.489,0.0415850979149984
186,3.496,0.0944447275999922
187,3.504,0.0413695956390549
188,3.511,0.0184545202970648
189,3.519,0.0125196560310022
190,3.527,0.0272011761635327
191,3.534,0.0106109215869314
192,3.542,0.00959840295710171
193,3.549,0.0117329016902562
194,3.557,0.0316446278532245
195,3.564,0.0228603446052426
196,3.572,0.0214886555155071
197,3.579,0.0121912716105169
198,3.587,0.0201682764914724
199,3.594,0.0207258458720881
200,3.602,0.00203529927279954
201,3.609,0.0066326811595938
202,3.617,0.0152801375657068
203,3.625,0.00929054256289673
204,3.632,0.0174591050224687
205,3.640,0.0110932362045192
206,3.647,0.00831223064353426
207,3.655,0.0123828291891333
208,3.662,0.020948189490125
209,3.670,0.0098002225488583
210,3.677,0.00880822794530894
211,3.685,0.00584250614780104
212,3.692,0.0156974594334069
213,3.700,7.86754340746042E-05
214,3.707,0.0207874179509291
215,3.715,0.0182561213763549
216,3.722,0.0122220576499374
217,3.730,0.006273510699688
218,3.738,0.0283676249904649
219,3.745,0.0144489145013534
220,3.753,0.0226756283687196
221,3.760,0.00680713538297662
222,3.768,0.0172572854307121
223,3.775,0.00801805293351618
224,3.783,0.0213997180682923
225,3.790,0.00914345370788769
226,3.798,0
227,3.805,0.0239789040375207
228,3.813,0.0145925826853157
229,3.820,0.00886295868205649
230,3.828,0.022658525013486
231,3.836,0.0125299180441424
232,3.843,0.0118970939004988
233,3.851,0.0186905465992886
234,3.858,0.0104946187713428
235,3.866,0.0225319601847573
236,3.873,0.00359512527010474
237,3.881,0.00679687336983645
238,3.888,0.0145720586590354
239,3.896,0.0278750483597369
240,3.903,0.0155811566178183
241,3.911,0.0196722791896978
242,3.918,0.0129951293064966
243,3.926,0.015560632591538
244,3.933,0.0132003695692999
245,3.941,0.0115310820984996
246,3.949,0.00797700488095552
247,3.956,0.0107614311129872
248,3.964,0.0319559089184762
249,3.971,0.083105203080109
250,3.979,0.0536224393284128
251,3.986,0.0232913491571296
252,3.994,0.00536361220125997
253,4.001,0.028230798148596
254,4.009,0.088985336609424
255,4.016,0.0607442764476879
256,4.024,0.0261783955205629
257,4.031,0.026103140757535
258,4.039,0.00605800842374452
259,4.047,0.0206095430564996
260,4.054,0.0214886555155071
261,4.062,0.0274577264920369
262,4.069,0.0213723526999186
263,4.077,0.0235102721041198
264,4.084,0.0269583085192154
265,4.092,0.0297735207906676
266,4.099,0.0305123857367595
267,4.107,0.0155401085652577
268,4.114,0.00208318866745365
269,4.122,0.0302079460136013
270,4.129,0.0274337817947098
271,4.137,0.0213586700157317
272,4.144,0.0259970999550866
273,4.152,0.0264246838359268
274,4.160,0.0300711191717324
275,4.167,0.0311452098804031
276,4.175,0.0139084484759713
277,4.182,0.0219914941593752
278,4.190,0.0171409826151235
279,4.197,0.00429978350572945
280,4.205,0.0197988440184265
281,4.212,0.0135937467396729
282,4.220,0.0125196560310022
283,4.227,0.0137921456603828
284,4.235,0.0186050298231205
285,4.242,0.0175035737460761
286,4.250,0.085910153338421
287,4.257,0.377019521427597
288,4.265,0.392946165821134
289,4.273,0.0887287862809199
290,4.280,0.0176438212589917
291,4.288,0.0243654398658002
292,4.295,0.0162174014325086
293,4.303,0.00581856145047399
294,4.310,0.00965655436489598
295,4.318,0.00698843094845288
296,4.325,0.011992872689807
297,4.333,0.020407723464743
298,4.340,0.0147636162376518
299,4.348,0.0217178404756375
300,4.355,0.0224874914611499
301,4.363,0.0105561908501838
302,4.371,0.0166278819581153
303,4.378,0.0232674044598025
304,4.386,0.0332455019030903
305,4.393,0.0194465149006141
306,4.401,0.0129643432670761
307,4.408,0.0311144238409826
308,4.416,0.123075744261055
309,4.423,0.158982528238495
310,4.431,0.0589107967666449
311,4.438,0.02228909254044
312,4.446,0.0188855248489517
313,4.453,0.0216357443705161
314,4.461,0.0184134722445041
315,4.468,0.0262810156519645
316,4.476,0.0262126022310301
317,4.484,0.018180866613327
318,4.491,0.0167099780632366
319,4.499,0.0240404761163617
320,4.506,0.0591912917924761
321,4.514,0.0551548999573442
322,4.521,0.0484161779953021
323,4.529,0.0620065040639282
324,4.536,0.0421358259535206
325,4.544,0.0246904036152388
326,4.551,0.0367995791206344
327,4.559,0.0249059058911823
328,4.566,0.0319593295895229
329,4.574,0.0287438988056043
330,4.582,0.0216425857126096
331,4.589,0.0197783199921461
332,4.597,0.00845247815644986
333,4.604,0.0166278819581153
334,4.612,0.0263836357833662
335,4.619,0.0211363263976947
336,4.627,0.0107682724550806
337,4.634,0.0222583065010195
338,4.642,0.0340562009411634
339,4.649,0.0173120161674596
340,4.657,0.0270677699927106
341,4.664,0.0269617291902622
342,4.672,0.0216733717520301
343,4.679,0.016692874708003
344,4.687,0.0166381439712554
345,4.695,0.0149551738162682
346,4.702,0.0184339962707844
347,4.710,0.0175240977723564
348,4.717,0.0219333427515809
349,4.725,0.0230382194996721
350,4.732,0.02208043160659
351,4.740,0.0278511036624099
352,4.747,0.0410891006132237
353,4.755,0.032523740312232
354,4.762,0.0182937487578688
355,4.770,0.0306389505654882
356,4.777,0.00944447275999922
357,4.785,0.0184203135865975
358,4.793,0.0196654378476043
359,4.800,0.0229390200393172
360,4.808,0.0197612166369125
361,4.815,0.02930146818622
362,4.823,0.0332078745215764
363,4.830,0.0331873504952961
364,4.838,0.0392487795900873
365,4.845,0.0368440478442418
366,4.853,0.175367542552293
367,4.860,0.341519797304716
368,4.868,0.170417831547686
369,4.875,0.0785899172984361
370,4.883,0.0563452934816035
371,4.890,0.049339759177917
372,4.898,0.0413148649023073
373,4.906,0.0352431737943759
374,4.913,0.0335259969289215
375,4.921,0.0471505297080149
376,4.928,0.0253232277588824
377,4.936,0.033532838271015
378,4.943,0.0256174054689005
379,4.951,0.0257405496265824
380,4.958,0.0319524882474295
381,4.966,0.0543099942088039
382,4.973,0.0367448483838869
383,4.981,0.0203393100438085
384,4.988,0.0159471684198176
385,4.996,0.0104980394423896
386,5.003,0.0264520492043006
387,5.011,0.0719674981519825
388,5.019,0.452701868336319
389,5.026,0.487301955973911
390,5.034,0.16530050766179
391,5.041,0.0904425424753276
392,5.049,0.0810356970968423
393,5.056,0.0527570095535922
394,5.064,0.0479201806935274
395,5.071,0.0444721442784317
396,5.079,0.0380412827105945
397,5.086,0.0420126817958386
398,5.094,0.0390161739589102
399,5.101,0.0437264379902463
400,5.109,0.0463432513409886
401,5.117,0.0314017602089072
402,5.124,0.0309707556570203
403,5.132,0.0265649313488424
404,5.139,0.0342648618750135
405,5.147,0.118221812045756
406,5.154,0.325155307017199
407,5.162,0.248453600136553
408,5.169,0.0991002608945807
409,5.177,0.0718648780205808
410,5.184,0.0704863475887519
411,5.192,0.0704213548388642
412,5.199,0.0695182976825296
413,5.207,0.0593862700421392
414,5.214,0.0467947799191559
415,5.222,0.0478928153251536
416,5.230,0.0446294951465809
417,5.237,0.077077980695785
418,5.245,0.529673808229656
419,5.252,1.26228918831923
420,5.260,0.600379078765398
421,5.267,0.227248860317924
422,5.275,0.155640532625847
423,5.282,0.122295831262402
424,5.290,0.111907253293508
425,5.297,0.0996338855778694
426,5.305,0.0941266051926471
427,5.312,0.0794211403627895
428,5.320,0.0924265316824263
429,5.328,0.0635629093901867
430,5.335,0.0632311042986547
431,5.343,0.0575869970715635
432,5.350,0.0670793592262168
433,5.358,0.0662002467672093
434,5.365,0.0604090506851091
435,5.373,0.0577956580054136
436,5.380,0.0510671980565115
437,5.388,0.0417390281121009
438,5.395,0.041995578440605
439,5.403,0.047629423654556
440,5.410,0.0405110072063277
441,5.418,0.0339159534282478
442,5.425,0.0353150078863571
443,5.433,0.0415166844940639
444,5.441,0.0401860434568891
445,5.448,0.0375692301061468
446,5.456,0.0342751238881536
447,5.463,0.0475781135888552
448,5.471,0.0535369225522448
449,5.478,0.0531367040397783
450,5.486,0.0301976840004611
451,5.493,0.0442429593183013
452,5.501,0.0363138438319999
453,5.508,0.0342238138224528
454,5.516,0.0376308021849878
455,5.523,0.0325716297068861
456,5.531,0.0284360384113993
457,5.539,0.0335670449814822
458,5.546,0.0304268689605915
459,5.554,0.0355031447939268
460,5.561,0.0350995056104136
461,5.569,0.0256139847978537
462,5.576,0.0294143503307618
463,5.584,0.0415030018098771
464,5.591,0.0402270915094498
465,5.599,0.0425292031238936
466,5.606,0.105120641936811
467,5.614,1.42673110754829
468,5.621,5.77267656905326
469,5.629,3.99123213597304
470,5.636,0.93381583038671
471,5.644,0.460545467046452
472,5.652,0.318946789067399
473,5.659,0.233864438122284
474,5.667,0.202277961676854
475,5.674,0.159351960711541
476,5.682,0.145877937458503
477,5.689,0.12795362117368
478,5.697,0.121074651698722
479,5.704,0.115468171853145
480,5.712,0.0958472027291482
481,5.719,0.106759143368191
482,5.727,0.10771008991918
483,5.734,0.116945901745329
484,5.742,0.0923170702089312
485,5.749,0.071259419245311
486,5.757,0.0580145809524038
487,5.765,0.0668741189634135
488,5.772,0.0648661850589878
489,5.780,0.0665320518587413
490,5.787,0.0563316107974166
491,5.795,0.0491276775730202
492,5.802,0.0499828453347007
493,5.810,0.0470342268924264
494,5.817,0.0502667610315786
495,5.825,0.0562289906660149
496,5.832,0.03569812304359
497,5.840,0.0495586821249072
498,5.847,0.058380592754403
499,5.855,0.0474720727864068
500,5.863,0.0435075150432561
501,5.870,0.0385304386702757
502,5.878,0.0492987111253563
503,5.885,0.0397413562208153
504,5.893,0.0449749829222998
505,5.900,0.0336901891391642
506,5.908,0.0367790550943541
507,5.915,0.0465484916037919
508,5.923,0.0428883735837994
509,5.930,0.0501778235843638
510,5.938,0.0427925947944912
511,5.945,0.0517239668974821
512,5.953,0.0388109336961069
513,5.960,0.0404220697591129
514,5.968,0.0383012537101453
515,5.976,0.0428541668733322
516,5.983,0.0345795636113119
517,5.991,0.0389477605379758
518,5.998,0.0435246183984897
519,6.006,0.0342717032171069
520,6.013,0.0353971039914784
521,6.021,0.053718218117721
522,6.028,0.0691009758148295
523,6.036,0.0513613757665296
524,6.043,0.0578538094132078
525,6.051,0.0427378640577437
526,6.058,0.0370527087780918
527,6.066,0.0429636283468273
528,6.074,0.0335157349157814
529,6.081,0.0475746929178085
530,6.089,0.0425941958737813
531,6.096,0.0441471805289931
532,6.104,0.0431243998860232
533,6.111,0.0459122467891016
534,6.119,0.0330471029823805
535,6.126,0.0563213487842764
536,6.134,0.122658422393355
537,6.141,0.0999862146956817
538,6.149,0.0640041759552138
539,6.156,0.0527741129088258
540,6.164,0.0499760039926072
541,6.171,0.0504891046496155
542,6.179,0.0349729407816849
543,6.187,0.0478107192200323
544,6.194,0.0485940528897316
545,6.202,0.0437264379902463
546,6.209,0.0531196006845447
547,6.217,0.0490900501915063
548,6.224,0.0626393282075718
549,6.232,0.0428062774786781
550,6.239,0.0419408477038575
551,6.247,0.0568515527965183
552,6.254,0.0522712742649577
553,6.262,0.045686482500018
554,6.269,0.0401415747332817
555,6.277,0.056068219126819
556,6.285,0.0588013352931498
557,6.292,0.0569610142700134
558,6.300,0.0561332118767067
559,6.307,0.0567831393755839
560,6.315,0.0451631198298695
561,6.322,0.044246379989348
562,6.330,0.0360846588718695
563,6.337,0.0377744703689502
564,6.345,0.043274909412079
565,6.352,0.035414207346712
566,6.360,0.0369740333440172
567,6.367,0.0389853879194897
568,6.375,0.0380583860658281
569,6.382,0.0362112237005982
570,6.390,0.035328690570544
571,6.398,0.0314188635641408
572,6.405,0.0333686460607723
573,6.413,0.0512177075825673
574,6.420,0.0515597746872395
575,6.428,0.0429875730441544
576,6.435,0.0367961584495877
577,6.443,0.034565880927125
578,6.450,0.030936548946553
579,6.458,0.0388725057749479
580,6.465,0.0336354584024166
581,6.473,0.0381986335787437
582,6.480,0.0489190166391702
583,6.488,0.0489155959681235
584,6.496,0.0479407047198077
585,6.503,0.0414961604677836
586,6.511,0.053533501881198
587,6.518,0.0580351049786841
588,6.526,0.0569131248753593
589,6.533,0.0543647249455515
590,6.541,0.0682184426847752
591,6.548,0.0627385276679267
592,6.556,0.0581890351757866
593,6.563,0.0575835764005168
594,6.571,0.0546281166161491
595,6.578,0.0550762245232696
596,6.586,0.0467229458271747
597,6.593,0.0548641429183729
598,6.601,0.036508822081663
599,6.609,0.0666859820558438
600,6.616,0.088013866032155
601,6.624,0.0674864190807768
602,6.631,0.0604056300140624
603,6.639,0.0564205482446313
604,6.646,0.0429567870047339
605,6.654,0.0432988541094061
606,6.661,0.0435519837668635
607,6.669,0.0543784076297384
608,6.676,0.0484059159821619
609,6.684,0.0633610897984301
610,6.691,0.0577853959922734
611,6.699,0.0616439129329757
612,6.706,0.052993035855816
613,6.714,0.0470821162870805
614,6.722,0.0427549674129773
615,6.729,0.0348805826634234
616,6.737,0.0574877976112086
617,6.744,0.0498631218480654
618,6.752,0.0405007451931875
619,6.759,0.0515939813977067
620,6.767,0.0358383705565056
621,6.774,0.0399055484310579
622,6.782,0.0445405576993661
623,6.789,0.0346992870979472
624,6.797,0.0418313862303624
625,6.804,0.0302045253425546
626,6.812,0.0422145013875952
627,6.820,0.0352773805048432
628,6.827,0.0503899051892606
629,6.835,0.0332420812320436
630,6.842,0.0406102066666826
631,6.850,0.0292056893969117
632,6.857,0.0394950679054513
633,6.865,0.0400663199702538
634,6.872,0.0506704002150918
635,6.880,0.0518265870288838
636,6.887,0.063436344561458
637,6.895,0.0727097837691211
638,6.902,0.0718169886259267
639,6.910,0.0782239054964369
640,6.917,0.0704897682597986
641,6.925,0.0652014108215665
642,6.933,0.0769206298276358
643,6.940,0.0647088341908386
644,6.948,0.0749640059889109
645,6.955,0.0745158980817903
646,6.963,0.0516452914634075
647,6.970,0.0472531498394166
648,6.978,0.0708113113381905
649,6.985,0.0833446500533796
650,6.993,0.0738899152802402
651,7.000,0.075343700475097
652,7.008,0.0670348905026095
653,7.015,0.0742354030559591
654,7.023,0.139399186496012
655,7.031,0.241981690516155
656,7.038,0.184938580141021
657,7.046,0.123814609207147
658,7.053,0.106033961106286
659,7.061,0.114301723026213
660,7.068,0.099219984381216
661,7.076,0.095836940716008
662,7.083,0.0890571707014052
663,7.091,0.0800334404801528
664,7.098,0.0939350476140306
665,7.106,0.072785038532149
666,7.113,0.0894847545822454
667,7.121,0.0759731039476938
668,7.128,0.0763562191049267
669,7.136,0.0825681577257737
670,7.144,0.0742935544637534
671,7.151,0.0760996687764225
672,7.159,0.134682081122582
673,7.166,0.178565869980978
674,7.174,0.144359159513758
675,7.181,0.112611911529132
676,7.189,0.0924675797349869
677,7.196,0.0830641550275484
678,7.204,0.0942668527055627
679,7.211,0.078480455824941
680,7.219,0.115002960590791
681,7.226,0.250471796054119
682,7.234,0.318043731911064
683,7.242,0.225097258229536
684,7.249,0.147222261179865
685,7.257,0.164742938281174
686,7.264,0.154200430115177
687,7.272,0.111099974926481
688,7.279,0.111975666714442
689,7.287,0.108842332035645
690,7.294,0.103663436070908
691,7.302,0.0927480747608181
692,7.309,0.105955285672211
693,7.317,0.141256610874382
694,7.324,0.123260460497578
695,7.332,0.11141467666278
696,7.339,0.1064889103555
697,7.347,0.0922486567879967
