#"+EI TIC Scan TOL-Blank2.d "
#Point,X(Minutes),Y(Counts)
0,2.095,0.0830397933571656
1,2.102,0.0648418524548021
2,2.110,0.0761953063358839
3,2.117,0.0586165691774007
4,2.125,0.0671565939671603
5,2.132,0.0512609273876808
6,2.140,0.0641436898442524
7,2.148,0.0497399302718404
8,2.155,0.0526406296894814
9,2.163,0.0584129384159904
10,2.170,0.0521086962719197
11,2.178,0.056725712107162
12,2.185,0.0559236562509948
13,2.193,0.0567589579457596
14,2.200,0.0545813555176165
15,2.208,0.0461535354331239
16,2.215,0.0459249702927653
17,2.223,0.0701778095497175
18,2.230,0.393223467472812
19,2.238,0.246754769801242
20,2.246,0.119232044400482
21,2.253,0.0620284233634798
22,2.261,0.070892595079566
23,2.268,0.0669197173671523
24,2.276,0.0599131568827073
25,2.283,0.0644055008232085
26,2.291,0.0584337170651139
27,2.298,0.0477950487138806
28,2.306,0.0517803936157684
29,2.313,0.0518177951841907
30,2.321,0.047026238696311
31,2.328,0.0394960562539537
32,2.336,0.0443416372295545
33,2.343,0.0511362554929398
34,2.351,0.0603661314335996
35,2.359,0.0516640331806768
36,2.366,0.059721993310771
37,2.374,0.0472963611349165
38,2.381,0.0439302199769091
39,2.389,0.0384695909872526
40,2.396,0.0376010434538902
41,2.404,0.0425588291347579
42,2.411,0.0434481553172438
43,2.419,0.0543569461070827
44,2.426,0.0390264587837625
45,2.434,0.0725133297111992
46,2.441,0.357143421134762
47,2.449,0.300043693343377
48,2.457,0.0585376103107314
49,2.464,0.0421515676119373
50,2.472,0.0346421638187035
51,2.479,0.0333455761133969
52,2.487,0.0371646918222967
53,2.494,0.0370275527380816
54,2.502,0.0531767188368677
55,2.509,0.0781443436236684
56,2.517,0.0780903191359473
57,2.524,0.0953449093681038
58,2.532,0.0754929879955095
59,2.539,0.0491539723665576
60,2.547,0.0376301335626631
61,2.554,0.0343928200292214
62,2.562,0.0356146045976834
63,2.570,0.0462117156506697
64,2.577,0.0470013043173628
65,2.585,0.0473420741629882
66,2.592,0.038561017043396
67,2.600,0.032913380211628
68,2.607,0.0386856889381371
69,2.615,0.0413495117557701
70,2.622,0.0313549815273654
71,2.630,0.0545938227070906
72,2.637,0.18239913773593
73,2.645,0.12072395140755
74,2.652,0.0640356408688102
75,2.660,0.0543237002684851
76,2.668,0.0501471917946611
77,2.675,0.034662942467827
78,2.683,0.0384737467170773
79,2.690,0.0411874382926068
80,2.698,0.0303783850185607
81,2.705,0.0416237899242003
82,2.713,0.0381703784398742
83,2.720,0.0261270734078921
84,2.728,0.0397578672329098
85,2.735,0.0407593981206626
86,2.743,0.0403188907592444
87,2.750,0.061928685847687
88,2.758,0.0750815707428641
89,2.765,0.0599505584511296
90,2.773,0.0357933009801455
91,2.781,0.0433234834225028
92,2.788,0.0437099662962
93,2.796,0.0849015603186314
94,2.803,0.0646008201249694
95,2.811,0.042072608745268
96,2.818,0.0292604936957163
97,2.826,0.0453597910366061
98,2.833,0.0533720381386287
99,2.841,0.0455010858506459
100,2.848,0.0360010874713805
101,2.856,0.0289571254185132
102,2.863,0.0374431257205516
103,2.871,0.0510863867350434
104,2.878,0.0459831505103112
105,2.886,0.046984681398064
106,2.894,0.0326141676642496
107,2.901,0.0521086962719197
108,2.909,0.0513606649034736
109,2.916,0.0526406296894814
110,2.924,0.0591111010265401
111,2.931,0.0497191516227169
112,2.939,0.0374597486398504
113,2.946,0.0514271565806688
114,2.954,0.0564846797773293
115,2.961,0.0422720837768536
116,2.969,0.0971651190313226
117,2.976,2.82801985873677
118,2.984,25.0889513190328
119,2.992,65.1046234073477
120,2.999,100
121,3.007,25.2739851894776
122,3.014,0.169030154889869
123,3.022,0.088571069753842
124,3.029,0.0781817451920907
125,3.037,0.0660802599425628
126,3.044,0.0563724750720624
127,3.052,0.0694089995321479
128,3.059,0.0879144644415393
129,3.067,0.0684033129145704
130,3.074,0.0541657825351465
131,3.082,0.058446184254588
132,3.089,0.0538541027982939
133,3.097,0.0423593541031723
134,3.105,0.0555995093246681
135,3.112,0.0450647342190523
136,3.120,0.0368280777064959
137,3.127,0.0572825799036718
138,3.135,0.073348631405964
139,3.142,0.0909647701328695
140,3.150,0.0753267588025215
141,3.157,0.0464070349524306
142,3.165,0.0440715147909489
143,3.172,0.0576773742370184
144,3.180,0.0672480200233037
145,3.187,0.0494365619946373
146,3.195,0.0600336730476236
147,3.203,0.0590612322686437
148,3.210,0.04142015916279
149,3.218,0.0384114107697068
150,3.225,0.0309310970852459
151,3.233,0.0383282961732128
152,3.240,0.0383989435802327
153,3.248,0.0235422094569284
154,3.255,0.0380415508153085
155,3.263,0.190024901964256
156,3.270,0.4672827286788
157,3.278,0.276651090160138
158,3.285,0.0555288619176482
159,3.293,0.028404413351828
160,3.300,0.0384903696363761
161,3.308,0.0637821413495034
162,3.316,0.0634330600442286
163,3.323,0.0628803479775434
164,3.331,0.0432860818540805
165,3.338,0.0328801343730304
166,3.346,0.0220378352603868
167,3.353,0.0247307481867927
168,3.361,0.0189044149725626
169,3.368,0.00885586025643679
170,3.376,0.0314921206115805
171,3.383,0.0288075191448239
172,3.391,0.0240450527657172
173,3.398,0.0240575199551913
174,3.406,0.0238954464920279
175,3.414,0.0221084826674067
176,3.421,0.0190747998953753
177,3.429,0.017192254284786
178,3.436,0.016041117123344
179,3.444,0.0247889284043386
180,3.451,0.0398742276680014
181,3.459,0.169370924735494
182,3.466,0.280200083430432
183,3.474,0.11710846646006
184,3.481,0.0398617604785273
185,3.489,0.065897407830276
186,3.496,0.0984907968454021
187,3.504,0.0312386210922737
188,3.511,0.0144536283303084
189,3.519,0.0100527104459505
190,3.527,0.025906819727183
191,3.534,0.0177740564602441
192,3.542,0.0176950975935748
193,3.549,0.0205625511726181
194,3.557,0.0378670101626711
195,3.564,0.030652663186991
196,3.572,0.00753018244235733
197,3.579,0.0227276864112871
198,3.587,0.0309726543834929
199,3.594,0.0240866100639642
200,3.602,0.0255203368534858
201,3.609,0.0250590508429441
202,3.617,0.0147403736882127
203,3.624,0.00799977991254848
204,3.632,0.024963469056976
205,3.640,0.0194072582813514
206,3.647,0.0163444854005471
207,3.655,0.0177408106216465
208,3.662,0.0187298743199252
209,3.670,0.012030837842508
210,3.677,0.0180441788988496
211,3.685,0.0178987283549851
212,3.692,0.010725938677552
213,3.700,0.0159122894987783
214,3.707,0.0224991212709286
215,3.715,0.0198311427234708
216,3.722,0.0215973278989686
217,3.730,0.0202633386252397
218,3.738,0.0175454913198856
219,3.745,0.0194280369304749
220,3.753,0.0189833738392319
221,3.760,0.0241821918499323
222,3.768,0.00457130280717056
223,3.775,0.0124006977969063
224,3.783,0.017636917376029
225,3.790,0.0117150023758307
226,3.798,0.0153720446215672
227,3.805,0.0203921662498054
228,3.813,0.0129617213232409
229,3.820,0.0158499535514077
230,3.828,0.0206996902568332
231,3.835,0.0133191140881651
232,3.843,0.0121181081688267
233,3.851,0.0192867421164351
234,3.858,0.00737226470901871
235,3.866,0.0149066028812007
236,3.873,0.00608398846336155
237,3.881,0.0243276423937968
238,3.888,0.0198934786708413
239,3.896,0.0125336811512967
240,3.903,0.0123051160109382
241,3.911,0.00836963986694683
242,3.918,0.015513339435607
243,3.926,0.0155216508952564
244,3.933,0.0170010907128498
245,3.941,0.0116568221582849
246,3.949,0.0213729184884347
247,3.956,0.0205043709550723
248,3.964,0.0359969317415558
249,3.971,0.0797484553360028
250,3.979,0.0401526615662563
251,3.986,0.0260564260008722
252,3.994,0.0152723071057744
253,4.001,0.0125544598004202
254,4.009,0.0113742325302053
255,4.016,0.00722681416515419
256,4.024,0.0209781241550882
257,4.031,0.015874887930356
258,4.039,0.0172878360707541
259,4.046,0.0105513980249146
260,4.054,0.0164940916742363
261,4.062,0.00204046334392795
262,4.069,0.0155632081935034
263,4.077,0.0174249751549692
264,4.084,0.0473628528121117
265,4.092,0.150333526408541
266,4.099,0.233061640028854
267,4.107,0.104716080122803
268,4.114,0.0302661803132938
269,4.122,0.0177740564602441
270,4.129,0.0138884490741491
271,4.137,0.0138261131267786
272,4.144,0.00804133721079549
273,4.152,0.0148484226636549
274,4.160,0.00773381320376765
275,4.167,0.0176327616462043
276,4.175,0.0112370934459902
277,4.182,0.00833223829852453
278,4.190,0.01547178213736
279,4.197,0.0112412491758149
280,4.205,0.0128578280776234
281,4.212,0.0185303992883396
282,4.220,0.0121471982775996
283,4.227,0.00687357713005465
284,4.235,0.0201677568392716
285,4.242,0.0160494285829934
286,4.250,0.152062310015616
287,4.257,0.492017632595417
288,4.265,0.343936511751864
289,4.273,0.0596638130932252
290,4.280,0.0274943085202186
291,4.288,0.0296137307308158
292,4.295,0.0188877920532638
293,4.303,0.019037398326953
294,4.310,0.019968281807686
295,4.318,0.0237707745972869
296,4.325,0.00809120596869189
297,4.333,0.0201511339199728
298,4.340,0.0141170142145076
299,4.348,0.0159247566882524
300,4.355,0.0173667949374234
301,4.363,0.0156671014391209
302,4.371,0.00956649005646058
303,4.378,0.00983661249506611
304,4.386,0.0141710387022287
305,4.393,0.0149938732075194
306,4.401,0.0165148703233598
307,4.408,0.035606293138034
308,4.416,0.140247570123993
309,4.423,0.133024911688663
310,4.431,0.0245977648324023
311,4.438,0.012529525421472
312,4.446,0.0222788675902194
313,4.453,0.0147486851478621
314,4.461,0.0131695078144759
315,4.468,0.013834424586428
316,4.476,0.00798315699324968
317,4.484,0.0162946166426507
318,4.491,0.0135559906881731
319,4.499,0.0128328936986752
320,4.506,0.0115529289126674
321,4.514,0.0172795246111047
322,4.521,0.0140255881583642
323,4.529,0.00599256240721814
324,4.536,0.00831145964940102
325,4.544,0.0143164892460933
326,4.551,0.0143455793548662
327,4.559,0
328,4.566,0.0155174951654317
329,4.574,0.0142873991373204
330,4.581,0.0218840732568729
331,4.589,0.0196108890427617
332,4.597,0.0189335050813355
333,4.604,0.00660345469144911
334,4.612,0.0185636451269372
335,4.619,0.0149897174776947
336,4.627,0.0224617197025063
337,4.634,0.0105638652143887
338,4.642,0.0140754569162606
339,4.649,0.00920909729153633
340,4.657,0.0210155257235105
341,4.664,0.00868131960379937
342,4.672,0.0123591404986593
343,4.679,0.0194612827690725
344,4.687,0.018372481555001
345,4.695,0.0122303128740936
346,4.702,0.0223993837551358
347,4.710,0.0154925607864835
348,4.717,0.0161948791268579
349,4.725,0.00860651646695476
350,4.732,0.0156629457092962
351,4.740,0.0132817125197428
352,4.747,0.0204877480357735
353,4.755,0.0223869165656617
354,4.762,0.0220710810989844
355,4.770,0.0131196390565795
356,4.777,0.0102604969371856
357,4.785,0.0116568221582849
358,4.792,0.0144079153022367
359,4.800,0.0118355185407471
360,4.808,0.0163195510215989
361,4.815,0.0194945286076701
362,4.823,0.0146780377408422
363,4.830,0.0177782121900688
364,4.838,0.0303659178290866
365,4.845,0.0265675807693104
366,4.853,0.00790419812658037
367,4.860,0.01727536888128
368,4.868,0.00836963986694683
369,4.875,0.0170301808216227
370,4.883,0.0181106705760448
371,4.890,0.0160120270145711
372,4.898,0.00461286010541757
373,4.906,0.0107300944073767
374,4.913,0.0173086147198776
375,4.921,0.0040601480387324
376,4.928,0.003274715101864
377,4.936,0.0132484666811452
378,4.943,0.00868547533362407
379,4.951,0.0147112835794398
380,4.958,0.0341143861309665
381,4.966,0.0328427328046081
382,4.973,0.025586828530681
383,4.981,0.0229437843621715
384,4.988,0.0194238812006502
385,4.996,0.0140629897267865
386,5.003,0.0148899799619019
387,5.011,0.0221417285060043
388,5.019,0.0277394965798759
389,5.026,0.019897634400666
390,5.034,0.0143829809232885
391,5.041,0.0275774231167126
392,5.049,0.0453265451980085
393,5.056,0.0894188386380809
394,5.064,0.0729953943708645
395,5.071,0.0396331953381688
396,5.079,0.0231557265832312
397,5.086,0.0300209922536365
398,5.094,0.0295181489448477
399,5.101,0.0227858666288329
400,5.109,0.0194612827690725
401,5.117,0.0204295678182277
402,5.124,0.0153845118110413
403,5.132,0.0183433914462281
404,5.139,0.0317788659694848
405,5.147,0.0254870910148882
406,5.154,0.0191537587620447
407,5.162,0.0196815364497816
408,5.169,0.0211775991866738
409,5.177,0.0115072158845957
410,5.184,0.0212191564849208
411,5.192,0.0210279929129846
412,5.199,0.00837379559677153
413,5.207,0.0207080017164826
414,5.214,0.019191160330467
415,5.222,0.0190457097866024
416,5.230,0.0190207754076542
417,5.237,0.0161076088005392
418,5.245,0.0201719125690963
419,5.252,0.036383414615253
420,5.260,0.0191994717901164
421,5.267,0.0144370054110096
422,5.275,0.00866469668450057
423,5.282,0.0145741444952247
424,5.290,0.0207661819340285
425,5.297,0.0152307498075274
426,5.305,0.0201095766217258
427,5.312,0.0240367413060678
428,5.320,0.0214269429761558
429,5.327,0.0208659194498213
430,5.335,0.0170094021724992
431,5.343,0.00983245676524141
432,5.350,0.0160328056636946
433,5.358,0.00725174854410239
434,5.365,0.0225739244077732
435,5.373,0.0221126383972314
436,5.380,0.0232970213972711
437,5.388,0.0208991652884189
438,5.395,0.0197106265585545
439,5.403,0.011823051351273
440,5.410,0.0248263299727609
441,5.418,0.0232180625306018
442,5.425,0.0221999087235501
443,5.433,0.01637357550932
444,5.441,0.0147320622285633
445,5.448,0.0213936971375582
446,5.456,0.0296594437588875
447,5.463,0.0258112379412149
448,5.471,0.0243401095832709
449,5.478,0.0229063827937492
450,5.486,0.023006120309542
451,5.493,0.0224409410533828
452,5.501,0.0206581329585862
453,5.508,0.0211942221059726
454,5.516,0.020828517881399
455,5.523,0.0203589204112078
456,5.531,0.0225697686779485
457,5.538,0.0243567325025697
458,5.546,0.00723512562480359
459,5.554,0.0240866100639642
460,5.561,0.0214768117340522
461,5.569,0.0159538467970253
462,5.576,0.0178322366777899
463,5.584,0.0136224823653683
464,5.591,0.0251961899271592
465,5.599,0.0203963219796301
466,5.606,0.0105804881336875
467,5.614,0.0286620686009594
468,5.621,0.0183059898778057
469,5.629,0.0222497774814465
470,5.636,0.0224409410533828
471,5.644,0.0171548527163637
472,5.652,0.0158291749022842
473,5.659,0.0208866980989448
474,5.667,0.0188587019444909
475,5.674,0.0198103640743473
476,5.682,0.0246725679692469
477,5.689,0.0151143893724358
478,5.697,0.0166062963795032
479,5.704,0.0216222622779168
480,5.712,0.0165647390812562
481,5.719,0.0156504785198221
482,5.727,0.0252876159833026
483,5.734,0.025420599337693
484,5.742,0.0266714740149279
485,5.749,0.0233718245341157
486,5.757,0.0289529696886885
487,5.765,0.027057956888625
488,5.772,0.0137305313408105
489,5.780,0.0210446158322834
490,5.787,0.0171340740672402
491,5.795,0.0189833738392319
492,5.802,0.0177158762426983
493,5.810,0.0287618061167522
494,5.817,0.0179111955444592
495,5.825,0.0226154817060202
496,5.832,0.0189584394602837
497,5.840,0.0221334170463549
498,5.847,0.0232596198288488
499,5.855,0.0204503464673512
500,5.863,0.0299046318185449
501,5.870,0.00999453022840473
502,5.878,0.0259816228640276
503,5.885,0.021285648162116
504,5.893,0.0161907233970332
505,5.900,0.0204337235480524
506,5.908,0.0202758058147138
507,5.915,0.0170218693619733
508,5.923,0.0151143893724358
509,5.930,0.0283005201062105
510,5.938,0.0198602328322437
511,5.945,0.0220129008814386
512,5.953,0.0239203808709761
513,5.960,0.0182519653900846
514,5.968,0.0161948791268579
515,5.976,0.00859404927748066
516,5.983,0.0195069957971442
517,5.991,0.00818678775466001
518,5.998,0.0147985539057585
519,6.006,0.00988232552313782
520,6.013,0.0211318861586021
521,6.021,0.0203713876006819
522,6.028,0.0185927352357101
523,6.036,0.0233926031832392
524,6.043,0.0235172750779802
525,6.051,0.0203256745726102
526,6.058,0.0194986843374948
527,6.066,0.0151227008320852
528,6.074,0.021771868551606
529,6.081,0.0223578264568887
530,6.089,0.0262060322745614
531,6.096,0.0193282994146821
532,6.104,0.0260107129728005
533,6.111,0.0244689372078366
534,6.119,0.017192254284786
535,6.126,0.0176743189444513
536,6.134,0.0272408090009119
537,6.141,0.030166442797501
538,6.149,0.0215599263305463
539,6.156,0.0258361723201631
540,6.164,0.0270621126184497
541,6.171,0.0335284282256837
542,6.179,0.0202259370568174
543,6.187,0.0253956649587448
544,6.194,0.0160161827443958
545,6.202,0.0234216932920121
546,6.209,0.0162115020461567
547,6.217,0.0234590948604344
548,6.224,0.0278433898254934
549,6.232,0.0238372662744821
550,6.239,0.033565829794106
551,6.247,0.0247182809973186
552,6.254,0.0183683258251763
553,6.262,0.0175454913198856
554,6.269,0.023492340699032
555,6.277,0.020259182895415
556,6.284,0.015596454032101
557,6.292,0.0206622886884109
558,6.300,0.0312677112010466
559,6.307,0.024227904878004
560,6.315,0.0217552456323072
561,6.322,0.0243276423937968
562,6.330,0.0165647390812562
563,6.337,0.022715219221813
564,6.345,0.0207121574463073
565,6.352,0.0120433050319821
566,6.360,0.0160743629619416
567,6.367,0.0199308802392637
568,6.375,0.0108215204635201
569,6.382,0.0131944421934241
570,6.390,0.0215682377901957
571,6.398,0.0116900679968825
572,6.405,0.0119352560565399
573,6.413,0.0157543717654396
574,6.420,0.0238871350323785
575,6.428,0.0080870502388672
576,6.435,0.0164400671865152
577,6.443,0.0137305313408105
578,6.450,0.0178322366777899
579,6.458,0.0191703816813435
580,6.465,0.00796237834412618
581,6.473,0.018954283730459
582,6.480,0.0316874399133414
583,6.488,0.0146988163899657
584,6.495,0.0170426480110968
585,6.503,0.0196399791515346
586,6.511,0.0199308802392637
587,6.518,0.0214809674638769
588,6.526,0.0282755857272623
589,6.533,0.0157793061443878
590,6.541,0.0252003456569839
591,6.548,0.0165481161619574
592,6.556,0.0204919037655982
593,6.563,0.0132318437618464
594,6.571,0.0232679312884982
595,6.578,0.0144411611408343
596,6.586,0.0283753232430551
597,6.593,0.0124256321758545
598,6.601,0.0138468917759021
599,6.609,0.0145492101162765
600,6.616,0.0203256745726102
601,6.624,0.01318197500395
602,6.631,0.0175454913198856
603,6.639,0.0380789523837308
604,6.646,0.0406347262259216
605,6.654,0.0247930841341632
606,6.661,0.0198810114813672
607,6.669,0.0268418589377406
608,6.676,0.0246975023481951
609,6.684,0.0213355169200124
610,6.691,0.0189501280006343
611,6.699,0.0191288243830965
612,6.706,0.0219006961761717
613,6.714,0.0205750183620922
614,6.722,0.0280968893448002
615,6.729,0.036923659492464
616,6.737,0.0362753656398108
617,6.744,0.0305363027518994
618,6.752,0.034912286257309
619,6.759,0.0260855161096451
620,6.767,0.0324230040923134
621,6.774,0.0381246654118025
622,6.782,0.0257489019938444
623,6.789,0.0309477200045447
624,6.797,0.0260107129728005
625,6.804,0.00875196701081928
626,6.812,0.0172296558532083
627,6.820,0.0135559906881731
628,6.827,0.0170218693619733
629,6.835,0.0209573455059647
630,6.842,0.0207578704743791
631,6.850,0.0215516148708969
632,6.857,0.0134063844144838
633,6.865,0.0220336795305621
634,6.872,0.0283171430255093
635,6.880,0.0171132954181167
636,6.887,0.0160078712847464
637,6.895,0.0222830233200441
638,6.902,0.0314962763414052
639,6.910,0.0389267212679697
640,6.917,0.0359262843345359
641,6.925,0.031803800348433
642,6.933,0.0252917717131273
643,6.940,0.0272366532710871
644,6.948,0.0309892773027917
645,6.955,0.0280470205869038
646,6.963,0.00954571140733707
647,6.970,0.0262517453026331
648,6.978,0.0170052464426745
649,6.985,0.0229271614428727
650,6.993,0.0215723935200204
651,7.000,0.0415905440856027
652,7.008,0.0206041084708651
653,7.015,0.0331170109730384
654,7.023,0.0412663971592761
655,7.030,0.0489046285770756
656,7.038,0.0370815772258027
657,7.046,0.0356603176257551
658,7.053,0.0286496014114853
659,7.061,0.0262018765447367
660,7.068,0.0259982457833264
661,7.076,0.0289612811483379
662,7.083,0.0291067316922024
663,7.091,0.0268335474780912
664,7.098,0.0222830233200441
665,7.106,0.025420599337693
666,7.113,0.0313674487168395
667,7.121,0.0266756297447526
668,7.128,0.0200597078638294
669,7.136,0.0282257169693659
670,7.144,0.0280511763167284
671,7.151,0.030374229288736
672,7.159,0.0459789947804865
673,7.166,0.0479986794752909
674,7.174,0.0320448326782656
675,7.181,0.0272574319202107
676,7.189,0.0355439571906635
677,7.196,0.023575455295526
678,7.204,0.0256200743692787
679,7.211,0.0322443077098513
680,7.219,0.0457462739103032
681,7.226,0.0522209009771866
682,7.234,0.0687440827601958
683,7.241,0.0424798702680886
684,7.249,0.030415786586983
685,7.257,0.0333746662221698
686,7.264,0.033885820990608
687,7.272,0.0420061170680728
688,7.279,0.0281259794535731
689,7.287,0.0333663547625204
690,7.294,0.0234674063200838
691,7.302,0.0339398454783291
692,7.309,0.0319492508922975
693,7.317,0.0261229176780674
