#"+EI TIC Scan TOL-Blank.d "
#Point,X(Minutes),Y(Counts)
0,2.095,0.0678693674028087
1,2.102,0.064078810607185
2,2.110,0.0679356101429264
3,2.117,0.0719028142455307
4,2.125,0.0575465404011344
5,2.132,0.0665997148838862
6,2.140,0.0579035151673242
7,2.148,0.0563652115357021
8,2.155,0.056229045903238
9,2.163,0.0508486633447895
10,2.170,0.0561112810319176
11,2.178,0.0504401664473971
12,2.185,0.0628275588494063
13,2.193,0.0583340929780892
14,2.200,0.0568436313254411
15,2.208,0.0503444824894493
16,2.215,0.0450965854112362
17,2.223,0.0542307232430208
18,2.230,0.0665629133615986
19,2.238,0.109745819613879
20,2.245,0.0859168339326523
21,2.253,0.0580249601908733
22,2.261,0.0434257962993788
23,2.268,0.070574279290948
24,2.276,0.0587499501799392
25,2.283,0.0604391400529405
26,2.291,0.0435104398006403
27,2.298,0.0422444674339465
28,2.306,0.0321755709360567
29,2.313,0.0535278141673275
30,2.321,0.0348915232808822
31,2.328,0.0448168938418504
32,2.336,0.0341481325306725
33,2.343,0.0431166635121629
34,2.351,0.0403234279705333
35,2.359,0.0517061388140908
36,2.366,0.0436502855853332
37,2.374,0.0405810386265466
38,2.381,0.0357489987501835
39,2.389,0.0310126428317682
40,2.396,0.0352558583515295
41,2.404,0.0294080964600285
42,2.411,0.0408791309570762
43,2.419,0.0623601795163537
44,2.426,0.0310788855718859
45,2.434,0.0445519228813796
46,2.441,0.179444222674382
47,2.449,0.311767776211709
48,2.456,0.0831162380865652
49,2.464,0.0306041459343757
50,2.472,0.0407245645634683
51,2.479,0.03457135003698
52,2.487,0.0334341829982929
53,2.494,0.0334930654339531
54,2.502,0.0319253205845009
55,2.509,0.05943077834226
56,2.517,0.0739048170579766
57,2.524,0.0526813791547125
58,2.532,0.0735993644229895
59,2.539,0.0482320751101405
60,2.547,0.051595734247228
61,2.554,0.035509788855314
62,2.562,0.0249771931766003
63,2.570,0.0436098039108168
64,2.577,0.0357305979890397
65,2.585,0.0353625827661636
66,2.592,0.0288781545390869
67,2.600,0.0369781695945896
68,2.607,0.034803199627392
69,2.615,0.0363599040201578
70,2.622,0.0365549520882821
71,2.630,0.0316750702329452
72,2.637,0.0345934309503526
73,2.645,0.0509369869982798
74,2.652,0.0481731926744803
75,2.660,0.0362715803666676
76,2.667,0.0382699030268847
77,2.675,0.0335335471084694
78,2.683,0.0421782246938288
79,2.690,0.0324111006786974
80,2.698,0.0260517976273985
81,2.705,0.0365365513271383
82,2.713,0.0354987483986278
83,2.720,0.0400142951833174
84,2.728,0.0339126027880318
85,2.735,0.0355061087030853
86,2.743,0.0452033098258703
87,2.750,0.0484786453094675
88,2.758,0.0625846688023081
89,2.765,0.0477058133414277
90,2.773,0.0247747848040185
91,2.781,0.0421414231715412
92,2.788,0.0319474014978735
93,2.796,0.0569687565012189
94,2.803,0.0596957493027308
95,2.811,0.0405331966475727
96,2.818,0.0496673344793573
97,2.826,0.0415194774448806
98,2.833,0.0512350793288094
99,2.841,0.035664355248922
100,2.848,0.0322123724583443
101,2.856,0.0390905769738984
102,2.863,0.034909924042026
103,2.871,0.0388550472312577
104,2.878,0.0432307482312544
105,2.886,0.0367389596997202
106,2.894,0.0367463200041777
107,2.901,0.0347222362783592
108,2.909,0.0537265423876806
109,2.916,0.0466348890428583
110,2.924,0.0552096437358712
111,2.931,0.0527623425037452
112,2.939,0.0390169739293232
113,2.946,0.0388072052522838
114,2.954,0.0475512469478198
115,2.961,0.0388403266223427
116,2.969,0.053719182083223
117,2.976,1.50228966191141
118,2.984,18.1410638414776
119,2.991,57.3899572841051
120,2.999,100
121,3.007,23.3031876116949
122,3.014,0.159884213578518
123,3.022,0.0826157373834537
124,3.029,0.0643548220243421
125,3.037,0.0639720861925509
126,3.044,0.0560082367695123
127,3.052,0.0609801224305683
128,3.059,0.0770513472135672
129,3.067,0.0808271834002759
130,3.074,0.0483976819604348
131,3.082,0.059953359958744
132,3.089,0.0641597739562177
133,3.097,0.0366175146761711
134,3.105,0.0388587273834865
135,3.112,0.0398597287897094
136,3.120,0.0377362809537144
137,3.127,0.0444304778578305
138,3.135,0.0670854949780827
139,3.142,0.0628827611328377
140,3.150,0.0726498851479692
141,3.157,0.0547643453161911
142,3.165,0.0374602695365573
143,3.172,0.0371216955315113
144,3.180,0.0527218608292288
145,3.187,0.0361059735163733
146,3.195,0.038435509877179
147,3.202,0.0457185311378968
148,3.210,0.0425057582421885
149,3.218,0.0326760716391681
150,3.225,0.0319842030201611
151,3.233,0.0278624325239489
152,3.240,0.0294816995046037
153,3.248,0.0215509714516239
154,3.255,0.0183897206871183
155,3.263,0.0321608503271416
156,3.270,0.0451481075424389
157,3.278,0.0488024987055985
158,3.285,0.0247711046517897
159,3.293,0.0228537453406053
160,3.300,0.0371474565971127
161,3.308,0.0394217906744869
162,3.316,0.0541460797417593
163,3.323,0.0414090728780178
164,3.331,0.031785474799808
165,3.338,0.023935710095861
166,3.346,0.0156627278856064
167,3.353,0.0253341679427901
168,3.361,0.0186142099730727
169,3.368,0.0112244642977208
170,3.376,0.0167115712708033
171,3.383,0.015423517990737
172,3.391,0.0162184308721493
173,3.398,0.0254224915962804
174,3.406,0.0196004907703806
175,3.413,0.0226071751412783
176,3.421,0.0147058883061286
177,3.429,0.0216429752573429
178,3.436,0.0142017074507884
179,3.444,0.0177824955693727
180,3.451,0.0263278090445556
181,3.459,0.0995076361134663
182,3.466,0.23608912577947
183,3.474,0.115829111248021
184,3.481,0.0380895755676754
185,3.489,0.0351785751547256
186,3.496,0.0780449883153327
187,3.504,0.0455271632220012
188,3.511,0.0159129782371622
189,3.519,0.0250986382001494
190,3.527,0.0153204737283317
191,3.534,0.0166195674650843
192,3.542,0.0148898959175667
193,3.549,0.0110809383607991
194,3.557,0.0375191519722175
195,3.564,0.0372578611639755
196,3.572,0.019225115243047
197,3.579,0.0227065392514548
198,3.587,0.0146617264793835
199,3.594,0.0124867565121858
200,3.602,0.0160969858486002
201,3.609,0.00987384842976553
202,3.617,0.0156443271244626
203,3.624,0.0200273884289169
204,3.632,0.0111950230798907
205,3.640,0.0139735380126052
206,3.647,0.0207854997880416
207,3.655,0.0168109353809798
208,3.662,0.00879924397896734
209,3.670,0.0171200681681958
210,3.677,0.0105399559831713
211,3.685,0.00740814643649572
212,3.692,0.0128142900605455
213,3.700,0
214,3.707,0.0173887192808953
215,3.715,0.0128106099083167
216,3.722,0.0192950381353935
217,3.730,0.00712109456265237
218,3.738,0.0171053475592807
219,3.745,0.0197145754894722
220,3.753,0.0166269277695418
221,3.760,0.0192950381353935
222,3.768,0.0142753104953636
223,3.775,0.00593240539276259
224,3.783,0.0030692469587866
225,3.790,0.0254372122051954
226,3.798,0.00757375328678996
227,3.805,0.0156958492556653
228,3.813,0.00588088326155994
229,3.820,0.0194017625500275
230,3.828,0.00776512120268553
231,3.835,0.0117065642396885
232,3.843,0.00644762670478912
233,3.851,0.014407795975599
234,3.858,0.00352926598738172
235,3.866,0.014746369980645
236,3.873,0.0139036151202587
237,3.881,0.0029183607174074
238,3.888,0.0163030743734108
239,3.896,0.00861891651975806
240,3.903,0.00914149813624211
241,3.911,0.0184118016004908
242,3.918,0.0184927649495236
243,3.926,0.00605017026408294
244,3.933,0.00850851195289523
245,3.941,0.0102933857838443
246,3.948,0.0110809383607991
247,3.956,0.00745230826324085
248,3.964,0.0220330713935916
249,3.971,0.0567773885853234
250,3.979,0.0564645756458787
251,3.986,0.0208296616147868
252,3.994,0.0136496846164742
253,4.001,0.0141281044062131
254,4.009,0.020903264659362
255,4.016,0.0212639195777806
256,4.024,0.01559280499326
257,4.031,0.0185038054062099
258,4.039,0.0155486431665149
259,4.046,0.0134877579184087
260,4.054,0.0191367915895567
261,4.062,0.0135908021808141
262,4.069,0.0195416083347204
263,4.077,0.021657695866258
264,4.084,0.0249698328721428
265,4.092,0.0215068096248788
266,4.099,0.028922316365832
267,4.107,0.0233248048258867
268,4.114,0.0137968907056247
269,4.122,0.0209327058771921
270,4.129,0.0256727419478361
271,4.137,0.0127995694516305
272,4.144,0.0194937663557466
273,4.152,0.0253709694650777
274,4.159,0.0167446926408622
275,4.167,0.0184486031227785
276,4.175,0.0225114911833305
277,4.182,0.0160565041740839
278,4.190,0.0142937112565074
279,4.197,0.0209069448115907
280,4.205,0.020163554061381
281,4.212,0.00825090129688196
282,4.220,0.011544637541623
283,4.227,0.0156664080378352
284,4.235,0.0196115312270669
285,4.242,0.0100431354322885
286,4.250,0.0783798821681499
287,4.257,0.381039281613676
288,4.265,0.346438490358866
289,4.273,0.0775849692867376
290,4.280,0.0331544914289071
291,4.288,0.0324184609831549
292,4.295,0.0198765021875377
293,4.303,0.00352926598738172
294,4.310,0.0203254807594465
295,4.318,0.024612858105953
296,4.325,0.0136975265954481
297,4.333,0.0166526888351431
298,4.340,0.0126450030580225
299,4.348,0.0200384288856032
300,4.355,0.0251391198746658
301,4.363,0.0148310134819065
302,4.370,0.0257868266669277
303,4.378,0.0149745394188282
304,4.386,0.0205242089797996
305,4.393,0.0103044262405306
306,4.401,0.00982232629856288
307,4.408,0.0249256710453977
308,4.416,0.0735552025962444
309,4.423,0.128378430348096
310,4.431,0.0517134991185483
311,4.438,0.0305894253254607
312,4.446,0.0278329913061188
313,4.453,0.0111839826232044
314,4.461,0.00167078911185745
315,4.468,0.0189675045870337
316,4.476,0.0168734979688688
317,4.484,0.0116660825651721
318,4.491,0.018625250429759
319,4.499,0.0224526087476703
320,4.506,0.017609528414621
321,4.514,0.0331618517333646
322,4.521,0.0254151312918229
323,4.529,0.0150334218544883
324,4.536,0.00951687366357572
325,4.544,0.0158246545836719
326,4.551,0.0207670990268978
327,4.559,0.0174733627821568
328,4.566,0.0154639996652534
329,4.574,0.00675675949200504
330,4.581,0.0232622422379977
331,4.589,0.00741550674095324
332,4.597,0.0157584118435542
333,4.604,0.0198212999041063
334,4.612,0.020995268465081
335,4.619,0.014992940179972
336,4.627,0.017609528414621
337,4.634,0.0221692370260557
338,4.642,0.0165128430504502
339,4.649,0.0151438264213512
340,4.657,0.0178229772438891
341,4.664,0.0142863509520499
342,4.672,0.0151879882480963
343,4.679,0.0192508763086483
344,4.687,0.0215509714516239
345,4.694,0.0138668135979711
346,4.702,0.021072551661885
347,4.710,0.00939542864002661
348,4.717,0.0106466803978053
349,4.725,0.017024384210248
350,4.732,0.0159240186938485
351,4.740,0.0151548668780374
352,4.747,0.0243000451665083
353,4.755,0.0124609954465844
354,4.762,0.0122512267695451
355,4.770,0.0147279692195012
356,4.777,0.0237480223321942
357,4.785,0.021764420280892
358,4.792,0.0243037253187371
359,4.800,0.0157584118435542
360,4.808,0.00279323554162953
361,4.815,0.0167042109663458
362,4.823,0.018286676424713
363,4.830,0.0200531494945182
364,4.838,0.0119972962657606
365,4.845,0.0213117615567544
366,4.853,0.0212197577510354
367,4.860,0.0201709143658386
368,4.868,0.022765421687115
369,4.875,0.0193281595054523
370,4.883,0.0259929151917383
371,4.890,0.0155707240798874
372,4.898,0.0150260615500308
373,4.905,0.0226366163591084
374,4.913,0.0124757160554995
375,4.921,0.0102345033481841
376,4.928,0.0185884489074714
377,4.936,0.0146433257182397
378,4.943,0.00591032447939003
379,4.951,0.0227764621438013
380,4.958,0.0293970560033422
381,4.966,0.0324810235710438
382,4.973,0.0283150912480865
383,4.981,0.00981864614633411
384,4.988,0.0251023183523782
385,4.996,0.0127738083860291
386,5.003,0.0132191068057092
387,5.011,0.014253229581991
388,5.019,0.00561591230108915
389,5.026,0.0254997747930844
390,5.034,0.0124941168166433
391,5.041,0.0137748097922521
392,5.049,0.0188902213902298
393,5.056,0.0229310285374092
394,5.064,0.0139256960336313
395,5.071,0.0117544062186624
396,5.079,0.0153278340327892
397,5.086,0.0270527990336215
398,5.094,0.0146322852615534
399,5.101,0.0211019928797151
400,5.109,0.0142495494297623
401,5.116,0.0223164431152062
402,5.124,0.0216061737350553
403,5.132,0.0131491839133627
404,5.139,0.0149340577443118
405,5.147,0.0133994342649185
406,5.154,0.0163067545256396
407,5.162,0.0189380633692037
408,5.169,0.0204542860874532
409,5.177,0.0219079462178137
410,5.184,0.0082950631236271
411,5.192,0.0245134939957764
412,5.199,0.0222244393094871
413,5.207,0.0217092179974606
414,5.214,0.0168955788822413
415,5.222,0.0230745544743309
416,5.230,0.0212602394255518
417,5.237,0.0159203385416197
418,5.245,0.0203512418250478
419,5.252,0.0193207992009948
420,5.260,0.0114268726703026
421,5.267,0.0137637693355658
422,5.275,0.0186510114953603
423,5.282,0.0141575456240432
424,5.290,0.0159571400639073
425,5.297,0.0157068897123516
426,5.305,0.014253229581991
427,5.312,0.0151843080958675
428,5.320,0.0106871620723217
429,5.327,0.0320688465214226
430,5.335,0.00714685562825369
431,5.343,0.0288928751480019
432,5.350,0.0197660976206749
433,5.358,0.0230303926475858
434,5.365,0.0177714551126864
435,5.373,0.00723885943397271
436,5.380,0.0191919938729882
437,5.388,0.0164024384835874
438,5.395,0.0160123423473387
439,5.403,0.0196115312270669
440,5.410,0.0210578310529699
441,5.418,0.0156296065155476
442,5.425,0.0173592780630652
443,5.433,0.0218895454566699
444,5.441,0.022765421687115
445,5.448,0.00920406072413104
446,5.456,0.0190779091538966
447,5.463,0.0323963800697823
448,5.471,0.0302508513204147
449,5.478,0.0362310986921512
450,5.486,0.0222759614406898
451,5.493,0.0173555979108365
452,5.501,0.0215288905382513
453,5.508,0.0249551122632277
454,5.516,0.0322344533717168
455,5.523,0.0191846335685306
456,5.531,0.016961821622359
457,5.538,0.0260370770184835
458,5.546,0.0345124676013198
459,5.554,0.0204358853263093
460,5.561,0.0148825356131091
461,5.569,0.022688138490311
462,5.576,0.0231481575189061
463,5.584,0.0183750000782032
464,5.591,0.00858579514969921
465,5.599,0.0230083117342132
466,5.606,0.0222502003750885
467,5.614,0.0150959844423773
468,5.621,0.0351785751547256
469,5.629,0.0395358753935785
470,5.636,0.0420457392135934
471,5.644,0.035171214850268
472,5.651,0.0262946876744967
473,5.659,0.0379681305441263
474,5.667,0.0323963800697823
475,5.674,0.021164555467604
476,5.682,0.0285616614474134
477,5.689,0.0204984479141983
478,5.697,0.0238142650723119
479,5.704,0.0288192721034267
480,5.712,0.0284365362716356
481,5.719,0.0283334920092303
482,5.727,0.0417660476442076
483,5.734,0.035079211044549
484,5.742,0.0355465903776017
485,5.749,0.0306372673044346
486,5.757,0.0378945274995511
487,5.765,0.0247637443473322
488,5.772,0.0239467505525473
489,5.780,0.0231371170622199
490,5.787,0.0325803876812204
491,5.795,0.0247600641951034
492,5.802,0.0227911827527163
493,5.810,0.0184486031227785
494,5.817,0.0210651913574275
495,5.825,0.0227507010782
496,5.832,0.0289443972792046
497,5.840,0.0216356149528854
498,5.847,0.025367289312849
499,5.855,0.0168808582733263
500,5.862,0.0300116414255452
501,5.870,0.0143636341488538
502,5.878,0.0216135340395128
503,5.885,0.0200825907123483
504,5.893,0.0250471160689468
505,5.900,0.0212087172943491
506,5.908,0.0202739586282439
507,5.915,0.0337359554810513
508,5.923,0.0271043211648241
509,5.930,0.0145991638914945
510,5.938,0.0121849840294274
511,5.945,0.0229899109730694
512,5.953,0.0251538404835808
513,5.960,0.0163729972657573
514,5.968,0.0255218557064569
515,5.976,0.0246570199326981
516,5.983,0.0137711296400233
517,5.991,0.0214700081025912
518,5.998,0.0236044963952725
519,6.006,0.0227691018393438
520,6.013,0.0315278641437947
521,6.021,0.0365696726971972
522,6.028,0.037003930660191
523,6.036,0.0270270379680201
524,6.043,0.0238105849200831
525,6.051,0.032216052610573
526,6.058,0.0282635691168838
527,6.066,0.0312592130310952
528,6.073,0.0306814291311797
529,6.081,0.0241749199907304
530,6.089,0.024627578714868
531,6.096,0.0295295414835776
532,6.104,0.017793536026059
533,6.111,0.0324515823532137
534,6.119,0.0336697127409336
535,6.126,0.0384465503338653
536,6.134,0.0764146808779916
537,6.141,0.0650282898822053
538,6.149,0.0392120219974475
539,6.156,0.0468262569587539
540,6.164,0.0379350091740675
541,6.171,0.0419463751034169
542,6.179,0.033555628021842
543,6.187,0.0296325857459829
544,6.194,0.0423769529141819
545,6.202,0.034078209638326
546,6.209,0.0298423544230222
547,6.217,0.0352411377426145
548,6.224,0.0287272682977077
549,6.232,0.021595133278369
550,6.239,0.0387704037299962
551,6.247,0.0243552474499397
552,6.254,0.032893200620665
553,6.262,0.0260481174751697
554,6.269,0.0227249400125986
555,6.277,0.0219263469789575
556,6.284,0.0236560185264751
557,6.292,0.0308580764381602
558,6.300,0.026320448740098
559,6.307,0.0291284048906426
560,6.315,0.0340009264415221
561,6.322,0.0192766373742497
562,6.330,0.0289259965180608
563,6.337,0.014330512778795
564,6.345,0.0286867866231913
565,6.352,0.0308985581126766
566,6.360,0.022441568290984
567,6.367,0.0268430303565821
568,6.375,0.0284328561194068
569,6.382,0.0249256710453977
570,6.390,0.0203144403027602
571,6.397,0.0308875176559903
572,6.405,0.0197292960983873
573,6.413,0.0240718757283251
574,6.420,0.0256396205777773
575,6.428,0.0237590627888805
576,6.435,0.0258788304726467
577,6.443,0.0203365212161328
578,6.450,0.0271006410125954
579,6.458,0.0226550171202522
580,6.465,0.0160013018906524
581,6.473,0.0311120069419448
582,6.480,0.0177604146560002
583,6.488,0.0303318146694474
584,6.495,0.0210467905962837
585,6.503,0.0267915082253794
586,6.511,0.0109153315105049
587,6.518,0.0382294213523684
588,6.526,0.0286131835786161
589,6.533,0.0232033598023376
590,6.541,0.0292314491530479
591,6.548,0.0196851342716421
592,6.556,0.0215988134305978
593,6.563,0.0265486181782812
594,6.571,0.0256322602733198
595,6.578,0.0289443972792046
596,6.586,0.0190116664137789
597,6.593,0.0288192721034267
598,6.601,0.0279507561774391
599,6.608,0.0284733377939232
600,6.616,0.0126965251892251
601,6.624,0.0234793712194946
602,6.631,0.0125125175777871
603,6.639,0.0217901813464934
604,6.646,0.0270785600992228
605,6.654,0.0360066094061968
606,6.661,0.0280317195264719
607,6.669,0.0233800071093181
608,6.676,0.0178524184617192
609,6.684,0.0261548418898038
610,6.691,0.0231591979755924
611,6.699,0.0318664381488407
612,6.706,0.0252679252026724
613,6.714,0.0280206790697856
614,6.722,0.014238508973076
615,6.729,0.0184007611438046
616,6.737,0.0254703335752543
617,6.744,0.0299822002077152
618,6.752,0.012806929756088
619,6.759,0.0237737833977955
620,6.767,0.0375007512110737
621,6.774,0.0265265372649087
622,6.782,0.0193502404188249
623,6.789,0.0164723613759338
624,6.797,0.0190889496105829
625,6.804,0.0167520529453197
626,6.812,0.0299196376198262
627,6.819,0.0238621070512858
628,6.827,0.0175285650655882
629,6.835,0.0326208693557367
630,6.842,0.0178487383094904
631,6.850,0.0190190267182364
632,6.857,0.0274318547131838
633,6.865,0.0316750702329452
634,6.872,0.0319584419545598
635,6.880,0.0243405268410247
636,6.887,0.0240093131404362
637,6.895,0.0351932957636406
638,6.902,0.028845033169028
639,6.910,0.0245650161269791
640,6.917,0.0381300572421918
641,6.925,0.0324810235710438
642,6.933,0.0380895755676754
643,6.940,0.0251464801791233
644,6.948,0.0262873273700392
645,6.955,0.035141773632438
646,6.963,0.0323816594608673
647,6.970,0.0332354547779398
648,6.978,0.0311892901387487
649,6.985,0.0315094633826509
650,6.993,0.0306483077611209
651,7.000,0.0360912529074583
652,7.008,0.0314984229259647
653,7.015,0.0380417335887016
654,7.023,0.0993677903287734
655,7.030,0.150389420828315
656,7.038,0.122236256278294
657,7.046,0.0861155621530054
658,7.053,0.0564020130579897
659,7.061,0.0510473915651426
660,7.068,0.0457590128124132
661,7.076,0.0428296116383195
662,7.083,0.0514853296803652
663,7.091,0.0397714051362192
664,7.098,0.0347921591707057
665,7.106,0.0358226017947587
666,7.113,0.0352632186559871
667,7.121,0.0291210445861851
668,7.128,0.0400106150310886
669,7.136,0.0324147808309261
670,7.144,0.0438306130445425
671,7.151,0.0446623274482424
672,7.159,0.080764620812387
673,7.166,0.103835495134489
674,7.174,0.0867816697064111
675,7.181,0.0617014322674055
676,7.189,0.0649804479032314
677,7.196,0.0425388796122474
678,7.204,0.0497225367627887
679,7.211,0.0476653316669113
680,7.219,0.0864099743313062
681,7.226,0.181030368284978
682,7.234,0.180154492054533
683,7.241,0.146212448048671
684,7.249,0.115670864702184
685,7.257,0.103717730263169
686,7.264,0.0801721163035565
687,7.272,0.0732129484389696
688,7.279,0.0635194274684134
689,7.287,0.0626840329124846
690,7.294,0.059769352347306
691,7.302,0.0542491240041646
692,7.309,0.0500353497022334
693,7.317,0.0541313591328443
